timestamp_ms,PPG_G1,PPG_G2,PPG_G3,PPG_G4
0,3338182,3708818,3536433,3134694
20,3338371,3709633,3536697,3134836
40,3337070,3708646,3535692,3133476
60,3334688,3706958,3533091,3131599
80,3331940,3704659,3530222,3129598
100,3329014,3702290,3526962,3127199
120,3326316,3700407,3523869,3125095
140,3323502,3697753,3521008,3122985
160,3321173,3696189,3518386,3121315
180,3318932,3693992,3515860,3119589
200,3316981,3692602,3513832,3117809
220,3315134,3690968,3511544,3116453
240,3313527,3689485,3509811,3115076
260,3312240,3688656,3508596,3114139
280,3311364,3687897,3507629,3113446
300,3310807,3687515,3507149,3113266
320,3310461,3687229,3507064,3113156
340,3310390,3687345,3506836,3113425
360,3310219,3687228,3507098,3113271
380,3310444,3687349,3507332,3113601
400,3311031,3687287,3507767,3113597
420,3310370,3686537,3507416,3113431
440,3310238,3686435,3507746,3113616
460,3310631,3686776,3508001,3113937
480,3310891,3686680,3508677,3114203
500,3310852,3686945,3509291,3114570
520,3311235,3687098,3509894,3115258
540,3311980,3687540,3510747,3115650
560,3312456,3687697,3511520,3116181
580,3313254,3688112,3512857,3116872
600,3314099,3688849,3514004,3117896
620,3314993,3689325,3515130,3118551
640,3315920,3689853,3516631,3119645
660,3316685,3690282,3517815,3120643
680,3317880,3691482,3519311,3121778
700,3318974,3692234,3520590,3122743
720,3320134,3692912,3522434,3123886
740,3321399,3693845,3523985,3125010
760,3322686,3694719,3525521,3126017
780,3324110,3695757,3527175,3127552
800,3325072,3697024,3528898,3128512
820,3326611,3698044,3530650,3129851
840,3327995,3698968,3532383,3131349
860,3329286,3700201,3534336,3132531
880,3331216,3701408,3536021,3134137
900,3332336,3702640,3537955,3135312
920,3333819,3703249,3539764,3136269
940,3334076,3703431,3540554,3136899
960,3332585,3702180,3539321,3135569
980,3330427,3699880,3537632,3133682
1000,3327809,3697558,3534897,3131152
1020,3324992,3694703,3531907,3128992
1040,3322213,3692298,3528743,3126765
1060,3319547,3690126,3526014,3124894
1080,3317282,3687534,3523981,3123149
1100,3315465,3685198,3521488,3121448
1120,3313655,3683526,3519710,3119749
1140,3311844,3681906,3518210,3118548
1160,3310576,3680379,3516879,3117683
1180,3309286,3678985,3515867,3116906
1200,3308768,3678315,3514971,3116359
1220,3308755,3677797,3515122,3116170
1240,3308805,3677438,3515372,3116295
1260,3308696,3676958,3515692,3116168
1280,3308642,3676654,3515715,3116202
1300,3308852,3676258,3515885,3116389
1320,3308968,3675757,3516308,3116374
1340,3309181,3675655,3516739,3116242
1360,3309135,3675351,3516735,3116139
1380,3309148,3674975,3516996,3116109
1400,3309641,3674867,3517625,3116406
1420,3309513,3674741,3518269,3116563
1440,3310391,3675228,3519049,3117132
1460,3311054,3675241,3519793,3117809
1480,3311832,3675786,3520678,3118085
1500,3312696,3676029,3521533,3118771
1520,3313638,3676775,3522734,3119606
1540,3314713,3677355,3523762,3120271
1560,3315831,3678309,3524979,3121249
1580,3316689,3679198,3526011,3122192
1600,3318160,3680226,3527298,3123002
1620,3319271,3680989,3528968,3123860
1640,3320447,3682232,3530364,3124885
1660,3321643,3683390,3531387,3125782
1680,3323204,3684709,3533250,3127118
1700,3324700,3685947,3534797,3128064
1720,3326211,3687382,3536472,3129065
1740,3327422,3688847,3538009,3130304
1760,3329076,3690324,3539644,3131732
1780,3330583,3691786,3541436,3132770
1800,3332302,3693220,3542794,3133914
1820,3332684,3693397,3543184,3133972
1840,3331447,3692606,3542632,3132794
1860,3329394,3690997,3540150,3130854
1880,3326894,3689021,3537260,3128752
1900,3324391,3686977,3534431,3126593
1920,3321825,3684780,3531397,3124657
1940,3319501,3682997,3528815,3122664
1960,3317208,3681141,3526365,3121109
1980,3315340,3679457,3524500,3119527
2000,3313755,3678201,3522544,3118291
2020,3312276,3677025,3520676,3117158
2040,3310799,3676040,3519484,3116340
2060,3310257,3675594,3518411,3115675
2080,3309534,3674892,3517974,3115265
2100,3309363,3674864,3517557,3115396
2120,3309649,3675051,3517638,3115492
2140,3309904,3675113,3518050,3115729
2160,3309998,3675852,3518367,3116000
2180,3310695,3676269,3518700,3116299
2200,3310559,3676118,3519040,3116285
2220,3310624,3676318,3519264,3116387
2240,3311337,3676841,3519565,3117073
2260,3311520,3677154,3519935,3117050
2280,3311708,3677591,3520697,3117451
2300,3312188,3678239,3521335,3117953
2320,3313068,3678662,3522373,3118610
2340,3313602,3679606,3523341,3119498
2360,3314771,3680721,3524287,3120355
2380,3315666,3681694,3525368,3121024
2400,3316670,3682551,3526457,3122033
2420,3317613,3683652,3528252,3123144
2440,3318918,3684973,3529336,3124272
2460,3320146,3686629,3530598,3125474
2480,3321297,3687519,3532330,3126411
2500,3322556,3688919,3533705,3127654
2520,3324067,3690419,3535539,3128980
2540,3325453,3691556,3537130,3130102
2560,3327033,3693305,3538699,3131587
2580,3328653,3694803,3540154,3132947
2600,3330370,3696756,3542333,3134269
2620,3331966,3698119,3544158,3135864
2640,3333683,3699785,3546215,3137190
2660,3335041,3701225,3547856,3138583
2680,3336705,3703014,3550178,3140221
2700,3338383,3704708,3551704,3141613
2720,3339350,3705647,3552792,3142153
2740,3338651,3705350,3552401,3141961
2760,3336554,3703803,3550528,3139864
2780,3334127,3701663,3547802,3138253
2800,3331105,3699731,3545161,3136001
2820,3328549,3697523,3541880,3133878
2840,3325672,3695367,3539227,3131935
2860,3323190,3693416,3536405,3130397
2880,3320909,3691505,3534081,3128656
2900,3319051,3689918,3532139,3127242
2920,3317229,3688301,3530137,3125810
2940,3315637,3687531,3528592,3124966
2960,3314194,3686219,3527441,3123858
2980,3313015,3685432,3525822,3123158
3000,3312395,3685333,3525556,3122791
3020,3312371,3685035,3525251,3122704
3040,3312516,3684993,3525326,3122753
3060,3312555,3685254,3525443,3122654
3080,3312554,3685604,3525961,3123047
3100,3313011,3685876,3526061,3123419
3120,3313251,3685961,3526765,3123722
3140,3312954,3686118,3527115,3123631
3160,3313468,3686344,3527449,3124223
3180,3313612,3686752,3528117,3124198
3200,3314099,3687028,3528371,3124614
3220,3314662,3687447,3529740,3125042
3240,3315224,3688260,3530293,3125933
3260,3316103,3688726,3531364,3126479
3280,3317076,3689631,3532430,3127232
3300,3317975,3690581,3533567,3128150
3320,3319231,3691533,3535046,3128988
3340,3320302,3692362,3536521,3130004
3360,3321564,3693307,3538076,3130930
3380,3322805,3694449,3539512,3131885
3400,3324346,3695496,3541049,3132987
3420,3325672,3696539,3542524,3133882
3440,3326919,3697989,3544453,3135079
3460,3328579,3698673,3545839,3136528
3480,3330157,3700494,3547696,3137637
3500,3331745,3702026,3549366,3138971
3520,3333254,3703442,3551389,3140500
3540,3335005,3704669,3553618,3141493
3560,3336569,3706565,3555605,3143091
3580,3338150,3708006,3557182,3144768
3600,3339990,3709228,3559430,3146092
3620,3341609,3710889,3561202,3147310
3640,3342477,3711723,3562167,3148014
3660,3342217,3711191,3562498,3147567
3680,3339922,3709574,3560274,3146262
3700,3337396,3707369,3557737,3143927
3720,3334828,3705431,3555072,3141896
3740,3331936,3703193,3552564,3140064
3760,3329762,3700852,3550008,3138344
3780,3327393,3698751,3547571,3136547
3800,3325300,3697107,3545456,3135144
3820,3323090,3695280,3543774,3133874
3840,3321575,3693775,3541918,3132770
3860,3319858,3692583,3540565,3131706
3880,3318987,3691495,3539434,3130839
3900,3318349,3690464,3538943,3130395
3920,3318389,3690245,3538643,3130221
3940,3317744,3689582,3538845,3130188
3960,3317969,3689631,3538813,3130350
3980,3318201,3689378,3539216,3130453
4000,3318126,3688819,3540014,3130616
4020,3318349,3689024,3540191,3130355
4040,3318381,3688841,3540512,3130718
4060,3318570,3688507,3540992,3131045
4080,3318744,3688390,3541542,3131126
4100,3318937,3688262,3541759,3131168
4120,3319172,3688281,3542326,3131504
4140,3319637,3688475,3543240,3131723
4160,3320091,3688794,3544039,3132335
4180,3320989,3689192,3545156,3133047
4200,3321845,3689489,3546100,3133414
4220,3322507,3689846,3547368,3134490
4240,3323491,3690241,3548419,3135110
4260,3324641,3690775,3549651,3135790
4280,3325419,3691810,3551145,3136780
4300,3326711,3692468,3552670,3137535
4320,3328054,3693226,3554168,3138568
4340,3329246,3694349,3555737,3139566
4360,3330834,3695190,3557423,3140796
4380,3331923,3696085,3559082,3141541
4400,3333360,3696968,3560727,3142820
4420,3334748,3698184,3562460,3143825
4440,3336097,3699208,3564596,3144987
4460,3337463,3700131,3566179,3146553
4480,3339357,3701497,3568204,3147682
4500,3340830,3702411,3569747,3148987
4520,3342327,3703422,3571687,3150029
4540,3342948,3704053,3572475,3150665
4560,3342298,3703095,3572181,3149836
4580,3340485,3701274,3570529,3147933
4600,3338028,3699005,3568075,3145870
4620,3335332,3696690,3565555,3143738
4640,3333364,3694489,3563171,3141942
4660,3330946,3692206,3560619,3140264
4680,3328623,3690111,3558755,3138916
4700,3327021,3688407,3556795,3137323
4720,3325130,3686646,3554953,3135873
4740,3323908,3685304,3553788,3134897
4760,3322633,3683853,3552717,3133874
4780,3321804,3683063,3551853,3133346
4800,3321511,3681887,3551202,3132970
4820,3321785,3681885,3551220,3133006
4840,3321938,3681505,3551623,3132773
4860,3322133,3681670,3551651,3132886
4880,3322115,3681531,3552005,3132818
4900,3322368,3681643,3552367,3133104
4920,3322699,3681299,3552375,3132900
4940,3322788,3681080,3552386,3132879
4960,3322994,3681180,3552577,3133093
4980,3323062,3681156,3552911,3133021
5000,3323682,3681375,3553370,3133153
5020,3324110,3681828,3554001,3133531
5040,3324760,3681977,3554538,3133829
5060,3325436,3682746,3554987,3134295
5080,3326499,3683462,3555897,3135051
5100,3327094,3683940,3556677,3135558
5120,3328071,3684750,3557831,3136028
5140,3329386,3686031,3558746,3136795
5160,3330122,3687024,3559749,3137503
5180,3331394,3687840,3560909,3138359
5200,3332973,3689548,3562129,3139420
5220,3334178,3690553,3563459,3140332
5240,3335619,3691826,3564915,3141128
5260,3336909,3693664,3566409,3142176
5280,3338471,3695090,3567537,3143215
5300,3339841,3696608,3569148,3144405
5320,3341511,3698080,3570952,3145510
5340,3343057,3699686,3572180,3146782
5360,3344962,3701471,3574031,3147816
5380,3346355,3703040,3575816,3149050
5400,3347397,3704238,3577045,3149726
5420,3347500,3704695,3576761,3149517
5440,3345615,3702967,3574915,3147907
5460,3343093,3701520,3572284,3145735
5480,3340407,3699733,3569551,3143594
5500,3337922,3697612,3566860,3141470
5520,3335111,3695653,3564050,3139463
5540,3333184,3693879,3561545,3137771
5560,3331138,3692692,3559098,3136260
5580,3329221,3690989,3557241,3134670
5600,3327469,3689623,3555125,3133338
5620,3326065,3688849,3553479,3132231
5640,3325179,3687735,3551719,3131377
5660,3323991,3687234,3550905,3130531
5680,3323991,3687294,3550469,3130210
5700,3323351,3687038,3550055,3130051
5720,3323666,3687358,3549857,3130082
5740,3323725,3687328,3550019,3130117
5760,3323961,3687530,3550429,3130225
5780,3324174,3687912,3550575,3130503
5800,3324728,3688137,3550751,3130403
5820,3324883,3688193,3550444,3130410
5840,3325342,3688342,3550628,3130387
5860,3325627,3688728,3550898,3130658
5880,3326029,3689410,3551595,3131100
5900,3326582,3690043,3551721,3131264
5920,3327125,3690655,3552688,3132176
5940,3328028,3691482,3553236,3132684
5960,3328802,3692509,3554082,3133346
5980,3329977,3693116,3555297,3134063
6000,3330632,3693926,3556230,3134807
6020,3332131,3694973,3557639,3136064
6040,3333279,3696402,3558827,3136761
6060,3334644,3697534,3560221,3137760
6080,3335728,3698650,3561742,3139005
6100,3337149,3699697,3562962,3139860
6120,3338451,3701053,3564407,3140935
6140,3339869,3702560,3566114,3141859
6160,3341409,3703996,3567463,3142951
6180,3342834,3705456,3569505,3144441
6200,3344323,3706967,3570978,3145516
6220,3345883,3708559,3572796,3147142
6240,3347492,3710167,3574311,3148288
6260,3349077,3711897,3576338,3149422
6280,3350594,3712963,3578111,3150946
6300,3352296,3715031,3579988,3152372
6320,3352872,3715550,3580644,3152813
6340,3351934,3714931,3580068,3151651
6360,3349724,3713676,3578272,3150007
6380,3347223,3711449,3575307,3147748
6400,3344242,3709251,3572610,3145410
6420,3341596,3707290,3569654,3143492
6440,3338672,3704993,3566500,3141551
6460,3336301,3703059,3564037,3139328
6480,3334344,3701525,3561908,3137896
6500,3331873,3699738,3559562,3136069
6520,3330088,3698178,3557427,3134436
6540,3328475,3696888,3555831,3133259
6560,3327068,3695812,3553994,3132269
6580,3325502,3694877,3552913,3131470
6600,3325263,3694382,3551999,3130977
6620,3324697,3694066,3551525,3130633
6640,3324611,3694347,3551795,3130737
6660,3324493,3693968,3551502,3130771
6680,3324575,3694094,3551514,3130554
6700,3324503,3694068,3551643,3130631
6720,3324297,3693594,3551700,3130320
6740,3324303,3693607,3551634,3130275
6760,3324033,3693416,3551770,3130401
6780,3324205,3693529,3552226,3130650
6800,3324263,3693460,3552411,3130758
6820,3324748,3693885,3552806,3130843
6840,3325108,3694100,3553538,3131504
6860,3325427,3694181,3554224,3131916
6880,3325944,3694697,3554902,3132724
6900,3326820,3695096,3555758,3133181
6920,3327454,3695704,3557212,3134069
6940,3328379,3696282,3558355,3134896
6960,3329354,3696737,3559137,3135429
6980,3329866,3697664,3560680,3136392
7000,3331118,3698399,3561997,3137163
7020,3332100,3699166,3563377,3137807
7040,3333224,3700201,3564734,3138583
7060,3334335,3700939,3566133,3139877
7080,3335098,3701918,3567593,3140840
7100,3336631,3703248,3569005,3141847
7120,3337859,3704410,3570612,3142907
7140,3339117,3705688,3572382,3144224
7160,3340447,3707046,3573740,3145312
7180,3341975,3708125,3575462,3146598
7200,3343505,3709457,3577242,3147948
7220,3344737,3710690,3578638,3149189
7240,3346369,3711353,3580011,3150008
7260,3345985,3711733,3580489,3149771
7280,3344644,3710186,3578886,3148510
7300,3342058,3708510,3576362,3146384
7320,3339193,3705830,3573483,3144309
7340,3336437,3703378,3570557,3142365
7360,3333853,3700898,3567996,3140197
7380,3331588,3698911,3565066,3138378
7400,3329195,3696946,3562452,3136570
7420,3326696,3694253,3560083,3135004
7440,3325368,3692717,3557815,3133416
7460,3323050,3690745,3555964,3132046
7480,3321762,3689453,3554275,3131168
7500,3320348,3687968,3552451,3129951
7520,3319511,3686900,3551823,3129245
7540,3319382,3686452,3551179,3129103
7560,3319052,3685868,3550709,3129095
7580,3318920,3685337,3550486,3128765
7600,3318955,3684767,3550335,3128536
7620,3318591,3684073,3550040,3128606
7640,3318464,3683854,3549952,3128459
7660,3318198,3683387,3549857,3128117
7680,3318094,3683061,3549345,3128066
7700,3318064,3682527,3549401,3127807
7720,3318259,3682241,3549432,3127636
7740,3318438,3682374,3549383,3127741
7760,3318930,3682217,3549787,3127915
7780,3319618,3682591,3550256,3128132
7800,3320120,3682937,3550799,3128600
7820,3320873,3683014,3551710,3128933
7840,3321585,3683483,3552167,3129483
7860,3322744,3684034,3552923,3130125
7880,3323489,3684829,3553856,3130716
7900,3324711,3685766,3555023,3131427
7920,3325939,3686599,3555886,3132046
7940,3327196,3687531,3557048,3132983
7960,3328472,3688475,3558074,3133929
7980,3329663,3689368,3559363,3134849
8000,3330638,3690644,3560476,3135975
8020,3332021,3691865,3561831,3136812
8040,3333534,3692995,3563028,3137843
8060,3335070,3694467,3564552,3138678
8080,3336231,3695917,3565922,3139889
8100,3337997,3697156,3567165,3141213
8120,3338728,3698435,3568209,3141557
8140,3338788,3698490,3568277,3141388
8160,3337406,3697473,3566661,3139783
8180,3335089,3695439,3564101,3137388
8200,3332342,3693626,3560788,3135036
8220,3329411,3691442,3557479,3132868
8240,3326569,3689085,3554313,3130431
8260,3324269,3687288,3550881,3128525
8280,3322259,3685546,3548142,3126651
8300,3320034,3683883,3545528,3124961
8320,3318069,3682372,3543104,3123323
8340,3316566,3681070,3540955,3122103
8360,3315176,3679969,3539224,3120945
8380,3314010,3679201,3537817,3120080
8400,3313164,3678683,3536907,3119298
8420,3313298,3678790,3536561,3119466
8440,3313424,3678942,3536346,3119391
8460,3313597,3679208,3535968,3119662
8480,3313438,3679580,3535709,3119472
8500,3313279,3679884,3535828,3119646
8520,3313370,3679546,3535804,3119736
8540,3313319,3679667,3535653,3119649
8560,3313708,3679701,3535615,3120004
8580,3313564,3680271,3535447,3120032
8600,3313793,3680678,3535735,3120407
8620,3314137,3681082,3536159,3120799
8640,3314714,3681926,3536548,3121493
8660,3315401,3682600,3537294,3121923
8680,3316024,3683387,3537885,3122430
8700,3316976,3684134,3538754,3123267
8720,3317686,3685133,3539831,3123901
8740,3318742,3686178,3540819,3125236
8760,3319690,3687245,3541875,3126040
8780,3320678,3688078,3542873,3126893
8800,3321793,3689366,3544060,3127979
8820,3323020,3690571,3545144,3129054
8840,3324287,3691981,3546749,3130221
8860,3325623,3693177,3547810,3131377
8880,3326876,3694821,3549351,3132403
8900,3328459,3696108,3550826,3133837
8920,3329815,3697594,3552475,3135104
8940,3331178,3699220,3554105,3136538
8960,3332838,3701023,3555556,3137894
8980,3334089,3702362,3557192,3139080
9000,3335530,3703945,3558646,3140673
9020,3337195,3705915,3560522,3141783
9040,3337948,3706690,3561486,3142386
9060,3337140,3706357,3560845,3141857
9080,3335092,3704344,3558512,3140138
9100,3332172,3702447,3555548,3137780
9120,3329220,3700069,3552263,3135407
9140,3326012,3697636,3548553,3132809
9160,3323311,3695347,3545255,3130691
9180,3320805,3693624,3542318,3128663
9200,3317642,3691185,3539072,3126072
9220,3315353,3689302,3536036,3124513
9240,3313105,3687705,3533237,3122537
9260,3311418,3685862,3530611,3120881
9280,3309704,3684771,3528885,3119562
9300,3307996,3683375,3527098,3118312
9320,3307123,3682608,3525857,3117589
9340,3306830,3682661,3525347,3116984
9360,3306424,3682402,3525077,3116784
9380,3306374,3681990,3524655,3116627
9400,3306271,3682287,3524257,3116550
9420,3306203,3682247,3524468,3116700
9440,3306151,3682094,3524075,3116483
9460,3305847,3682006,3524326,3116043
9480,3305829,3682049,3524022,3115882
9500,3305743,3682258,3523820,3116151
9520,3305984,3682241,3524375,3116381
9540,3305954,3682587,3524340,3116545
9560,3306564,3682657,3524918,3116857
9580,3306848,3683118,3525719,3117292
9600,3307526,3683568,3526476,3118085
9620,3308106,3684317,3526947,3118434
9640,3308982,3685094,3527921,3119341
9660,3309828,3685704,3528941,3120112
9680,3310614,3686628,3530319,3120822
9700,3311577,3687347,3531268,3121808
9720,3312703,3688195,3532923,3122647
9740,3313874,3689198,3533892,3123737
9760,3314886,3690086,3535260,3124581
9780,3316175,3691025,3536636,3125558
9800,3317448,3692128,3537822,3126713
9820,3319091,3693304,3539617,3128138
9840,3320185,3694571,3541350,3129118
9860,3321651,3695496,3542746,3130346
9880,3322916,3696444,3544173,3131617
9900,3324465,3698165,3546493,3132718
9920,3325948,3699189,3547894,3134246
9940,3327440,3700660,3549613,3135456
9960,3328658,3701661,3551228,3136449
9980,3329591,3702413,3552231,3137134
10000,3328932,3701863,3551878,3136600
10020,3326752,3700012,3549844,3134635
10040,3323984,3697706,3546829,3132391
10060,3321239,3694956,3543780,3130006
10080,3318608,3692664,3540683,3127594
10100,3315508,3689948,3537620,3125759
10120,3313015,3687795,3534842,3123293
10140,3310704,3685340,3532063,3121627
10160,3308581,3683611,3529767,3119812
10180,3306294,3681525,3527260,3118053
10200,3304906,3679667,3525496,3116803
10220,3303535,3678290,3523940,3115509
10240,3302320,3677289,3522887,3114438
10260,3301810,3676182,3521856,3114117
10280,3301572,3675778,3521784,3114032
10300,3301499,3675390,3521656,3113671
10320,3301164,3674882,3521586,3113427
10340,3301559,3674822,3521488,3113771
10360,3301381,3674797,3521319,3113758
10380,3301168,3674234,3521578,3113376
10400,3301487,3673804,3521499,3113439
10420,3301068,3673385,3521439,3113416
10440,3301173,3673065,3521831,3113366
10460,3301011,3672960,3521919,3113911
10480,3301465,3672788,3522261,3113927
10500,3301999,3672644,3523057,3114504
10520,3302569,3672848,3523641,3114997
10540,3303321,3673243,3524253,3115374
10560,3303997,3673421,3525181,3115877
10580,3304675,3673890,3526279,3116674
10600,3305769,3674223,3527266,3117290
10620,3306294,3674871,3528367,3118329
10640,3307841,3675651,3529559,3119063
10660,3308687,3675955,3530807,3119772
10680,3309817,3676775,3531928,3120556
10700,3311096,3677785,3533962,3121788
10720,3312448,3678778,3534972,3122804
10740,3313978,3679569,3536550,3123935
10760,3315404,3680492,3538137,3125091
10780,3317131,3681737,3539816,3126072
10800,3318483,3683311,3541512,3127511
10820,3320036,3684183,3542992,3128722
10840,3321651,3685689,3544451,3129734
10860,3322952,3686881,3545843,3130777
10880,3323678,3687428,3546064,3130712
10900,3322155,3686212,3545042,3129298
10920,3320569,3684737,3542424,3127724
10940,3317040,3682016,3538939,3124829
10960,3314726,3679948,3535770,3122607
10980,3312448,3677986,3532592,3120216
11000,3310076,3675734,3529806,3118227
11020,3308153,3674267,3526960,3116240
11040,3306285,3672482,3524820,3114736
11060,3304107,3671101,3522598,3113019
11080,3303238,3669709,3520749,3111773
11100,3301801,3668740,3519041,3110568
11120,3301175,3667871,3517544,3109717
11140,3300539,3667535,3516939,3109404
11160,3300737,3667431,3516406,3109263
11180,3301035,3667799,3516777,3109281
11200,3301237,3668056,3516839,3109380
11220,3301506,3668258,3516573,3109498
11240,3301652,3668492,3516431,3109308
11260,3301642,3668688,3516505,3109594
11280,3301893,3668908,3516635,3109404
11300,3302293,3669378,3516559,3109827
11320,3302616,3669671,3517119,3110025
11340,3303074,3670345,3517448,3110180
11360,3303561,3670869,3517693,3110690
11380,3304526,3671484,3518414,3111221
11400,3305106,3672626,3519527,3111887
11420,3306321,3673685,3520199,3112704
11440,3307120,3674476,3521043,3113563
11460,3308331,3675706,3522325,3114700
11480,3309810,3676786,3523429,3115297
11500,3310979,3678133,3524549,3116433
11520,3312008,3679542,3525847,3117636
11540,3313678,3680974,3527181,3118748
11560,3314972,3682476,3528654,3120051
11580,3316468,3683691,3530093,3121307
11600,3317943,3685434,3531750,3122422
11620,3319410,3687159,3533051,3123888
11640,3321131,3688722,3534504,3125240
11660,3322748,3690634,3536559,3126595
11680,3324236,3692304,3538006,3128361
11700,3325984,3694280,3539891,3129562
11720,3327672,3696085,3541506,3130917
11740,3329358,3697723,3543506,3132471
11760,3330647,3699500,3545090,3133912
11780,3331811,3700468,3546045,3134498
11800,3331074,3700086,3545520,3133678
11820,3329282,3698403,3543050,3131963
11840,3326509,3696392,3540161,3129649
11860,3324103,3694195,3536958,3127480
11880,3321043,3691937,3534138,3125372
11900,3318725,3690101,3530943,3123247
11920,3315890,3687791,3527700,3121230
11940,3313795,3685933,3525124,3119260
11960,3311704,3683968,3522772,3117908
11980,3309747,3682583,3520441,3116091
12000,3308183,3681302,3518518,3114985
12020,3306632,3679665,3516870,3113880
12040,3305659,3679072,3515612,3112746
12060,3304877,3678349,3514905,3112473
12080,3304783,3677980,3514438,3112185
12100,3304830,3678167,3514395,3112152
12120,3304908,3678299,3514391,3112222
12140,3304749,3678207,3514746,3112275
12160,3305340,3678454,3514772,3112571
12180,3305592,3678783,3515062,3112613
12200,3305531,3678754,3514828,3112670
12220,3305735,3679115,3515411,3113061
12240,3306181,3679368,3515590,3113244
12260,3306443,3679667,3515874,3113631
12280,3307210,3680167,3516564,3113941
12300,3307820,3680734,3516888,3114568
12320,3308550,3681379,3517842,3115401
12340,3309564,3682113,3519036,3116100
12360,3310308,3682929,3519640,3116975
12380,3311515,3683760,3521131,3117953
12400,3312666,3684979,3522239,3119034
12420,3313712,3686083,3523482,3120050
12440,3314928,3686837,3524821,3121176
12460,3316258,3688218,3526091,3122197
12480,3317686,3689553,3527614,3123376
12500,3319209,3690947,3528983,3124783
12520,3320468,3692289,3530766,3125903
12540,3321936,3693528,3532185,3127211
12560,3323424,3694633,3534177,3128610
12580,3325187,3696567,3535953,3130204
12600,3326651,3698004,3537794,3131572
12620,3328417,3699800,3539404,3132962
12640,3329988,3701325,3541389,3134184
12660,3332276,3703291,3543378,3135935
12680,3334013,3704882,3545121,3137479
12700,3335259,3706113,3546880,3138446
12720,3335740,3706691,3547652,3138999
12740,3335069,3706087,3546699,3137901
12760,3332797,3704555,3545248,3136058
12780,3330534,3701939,3542465,3134086
12800,3327873,3699572,3539659,3131846
12820,3324970,3697446,3536621,3129741
12840,3322718,3695397,3534015,3128061
12860,3320404,3692974,3531444,3126442
12880,3318053,3691272,3529249,3124513
12900,3316186,3689542,3527617,3123306
12920,3314739,3687636,3525983,3122353
12940,3313213,3686461,3524095,3121423
12960,3311840,3685407,3523199,3120524
12980,3311256,3684408,3522642,3119857
13000,3311234,3683809,3522375,3119800
13020,3311116,3683403,3522710,3119881
13040,3311077,3683551,3522625,3119953
13060,3311270,3683515,3523282,3120316
13080,3311687,3683580,3523747,3120486
13100,3311572,3683383,3523777,3120231
13120,3311826,3683043,3524533,3120794
13140,3311734,3683150,3524882,3120838
13160,3312004,3682795,3525362,3121113
13180,3312335,3682780,3525830,3121531
13200,3312761,3683048,3526582,3122090
13220,3312983,3683106,3526969,3122343
13240,3313859,3683401,3528016,3122932
13260,3314411,3683651,3529039,3123712
13280,3315408,3684110,3530089,3124474
13300,3316528,3684531,3531085,3125189
13320,3317232,3685362,3532545,3126210
13340,3318105,3685785,3533982,3127018
13360,3319330,3686632,3535282,3127862
13380,3320128,3687188,3536661,3128884
13400,3321515,3688271,3538376,3130061
13420,3322546,3689034,3540055,3131211
13440,3324191,3690165,3541487,3132379
13460,3325246,3691045,3543378,3133417
13480,3326659,3692156,3544925,3134722
13500,3328169,3693369,3546802,3135565
13520,3329403,3694550,3548465,3137059
13540,3330787,3695677,3550093,3138630
13560,3332298,3696812,3552210,3139618
13580,3333683,3698035,3554026,3140871
13600,3335538,3699364,3555788,3142157
13620,3337131,3700379,3558094,3143498
13640,3337905,3701202,3558933,3144022
13660,3337702,3700698,3558967,3143273
13680,3335701,3698641,3557545,3141681
13700,3333170,3696475,3555310,3139890
13720,3330921,3694042,3552544,3137680
13740,3328237,3691567,3550229,3135665
13760,3325638,3689317,3547507,3133608
13780,3323888,3687285,3545627,3131950
13800,3321972,3685231,3543633,3130676
13820,3320705,3683403,3542129,3129519
13840,3319024,3681923,3540991,3128362
13860,3317979,3680536,3539585,3127320
13880,3317538,3679378,3538423,3126727
13900,3316853,3678632,3537526,3126066
13920,3316507,3678224,3537675,3125991
13940,3316606,3677925,3537857,3125937
13960,3316962,3677928,3538038,3125926
13980,3317380,3677769,3538341,3126313
14000,3317350,3677736,3538718,3126476
14020,3317465,3677370,3538824,3126227
14040,3317718,3677646,3538914,3126353
14060,3317870,3677359,3539232,3126336
14080,3318125,3677493,3539358,3126823
14100,3318587,3677661,3539986,3126991
14120,3318851,3677993,3540261,3127371
14140,3319755,3678613,3540873,3127724
14160,3320293,3679017,3541429,3128468
14180,3321103,3679773,3542056,3128680
14200,3321853,3680632,3542906,3129307
14220,3323060,3681535,3544079,3129955
14240,3324159,3682296,3545019,3130873
14260,3325368,3683700,3545851,3131694
14280,3326453,3684873,3547233,3132756
14300,3327650,3686118,3548329,3133617
14320,3328759,3687423,3549428,3134553
14340,3329951,3688983,3550894,3135688
14360,3331413,3690338,3552271,3136664
14380,3333362,3692468,3553757,3137736
14400,3334482,3693407,3555261,3138857
14420,3336162,3695315,3556755,3140130
14440,3337913,3696924,3558198,3141417
14460,3339191,3698805,3559946,3142805
14480,3341061,3700637,3561679,3144503
14500,3342546,3702377,3562996,3145227
14520,3343055,3703261,3563797,3145767
14540,3342425,3702883,3563000,3144828
14560,3340349,3701285,3560701,3142986
14580,3338044,3699315,3558113,3140998
14600,3335600,3697488,3555208,3139036
14620,3333071,3695655,3552231,3137031
14640,3330912,3693977,3549961,3135412
14660,3328799,3691943,3547723,3133736
14680,3326600,3690791,3545441,3132186
14700,3325062,3689459,3543688,3130778
14720,3323721,3688226,3542018,3129619
14740,3322648,3687366,3540590,3128627
14760,3321441,3686577,3539049,3128098
14780,3320838,3686097,3538167,3127571
14800,3320230,3686146,3537976,3127484
14820,3320597,3686165,3537872,3127573
14840,3320801,3686478,3538456,3127845
14860,3321094,3686956,3538701,3128453
14880,3321290,3687234,3538865,3128464
14900,3321500,3687652,3539053,3128657
14920,3321715,3688269,3539763,3129103
14940,3322038,3688393,3540080,3129457
14960,3322257,3688771,3540641,3129844
14980,3322693,3689130,3541412,3130176
15000,3323412,3690043,3542203,3130803
15020,3323879,3690668,3542645,3131544
15040,3324673,3691631,3543469,3131861
15060,3325655,3692655,3544864,3133059
15080,3326431,3693569,3545661,3134096
15100,3327474,3694901,3547042,3134911
15120,3328536,3695916,3548053,3135792
15140,3329847,3697209,3549713,3137047
15160,3331239,3698541,3550994,3138226
15180,3332178,3699900,3552460,3139534
15200,3333685,3700962,3553969,3140718
15220,3335103,3702632,3555696,3141910
15240,3336286,3704015,3557008,3143098
15260,3338094,3705641,3558525,3144535
15280,3339692,3707303,3560482,3145752
15300,3341435,3709326,3562033,3147223
15320,3342979,3710941,3564052,3148578
15340,3344572,3712845,3565871,3149783
15360,3346422,3714302,3567886,3151477
15380,3347904,3716280,3569486,3152610
15400,3349595,3718089,3571433,3154565
15420,3351620,3719872,3573489,3155716
15440,3352436,3720975,3574943,3156796
15460,3352176,3721395,3574813,3156388
15480,3350407,3719931,3573170,3154770
15500,3348112,3718333,3570440,3152754
15520,3345532,3715886,3568272,3150699
15540,3342757,3714060,3565672,3148793
15560,3340606,3712122,3562560,3146709
15580,3337919,3710006,3560121,3144921
15600,3336046,3708370,3557471,3143266
15620,3334114,3706576,3555487,3141904
15640,3332181,3705133,3553950,3140546
15660,3330664,3703883,3552172,3139558
15680,3329416,3702707,3550739,3138434
15700,3328260,3701714,3549628,3137397
15720,3327266,3700932,3548997,3137139
15740,3327070,3701006,3548648,3136689
15760,3327230,3700715,3548799,3136912
15780,3327393,3700743,3549098,3137080
15800,3327424,3700832,3549337,3136953
15820,3327344,3700651,3549783,3137076
15840,3327848,3700728,3549991,3137358
15860,3327433,3700739,3550350,3137563
15880,3327608,3700832,3550648,3137426
15900,3327689,3700664,3550934,3137887
15920,3328043,3701100,3551432,3137852
15940,3328332,3701267,3551953,3138412
15960,3328938,3701558,3552599,3138899
15980,3329040,3701767,3553384,3139305
16000,3330058,3702279,3554328,3140025
16020,3330640,3702991,3555118,3140422
16040,3331779,3703416,3556593,3141330
16060,3332367,3704336,3557720,3141894
16080,3333250,3704808,3558768,3142971
16100,3334320,3706083,3560208,3143870
16120,3335345,3706850,3561510,3144499
16140,3337270,3708161,3563191,3145839
16160,3337593,3708788,3564651,3146806
16180,3338870,3709708,3566094,3147361
16200,3340345,3711055,3567452,3148706
16220,3341671,3712046,3569344,3149698
16240,3343165,3713129,3570894,3150982
16260,3344287,3714366,3572714,3152104
16280,3345813,3715505,3574475,3153405
16300,3347075,3716475,3576162,3154656
16320,3348585,3717605,3577981,3155683
16340,3350165,3719398,3579726,3157082
16360,3351800,3720373,3581092,3157744
16380,3352019,3720767,3581642,3158014
16400,3350669,3719808,3580509,3156592
16420,3348349,3717305,3578109,3154637
16440,3345904,3715093,3575365,3152406
16460,3343583,3712796,3572777,3150396
16480,3340863,3710456,3570327,3148210
16500,3338547,3707949,3567843,3145976
16520,3336889,3706156,3565367,3143948
16540,3334997,3704391,3563586,3142526
16560,3333334,3702758,3561370,3140967
16580,3332208,3700985,3559664,3139467
16600,3330983,3699586,3558539,3138483
16620,3330393,3698556,3557407,3137779
16640,3329865,3697819,3556794,3137135
16660,3329834,3697471,3556585,3137116
16680,3329937,3697358,3556718,3136810
16700,3329901,3697175,3556583,3136783
16720,3330117,3696643,3556613,3136693
16740,3330151,3696569,3556776,3136657
16760,3329936,3696238,3556528,3136617
16780,3330173,3695900,3556830,3136271
16800,3330051,3695451,3556833,3136396
16820,3330551,3695336,3556849,3136190
16840,3330906,3695120,3557118,3136379
16860,3331448,3695569,3557403,3136483
16880,3331964,3695620,3558036,3136874
16900,3332087,3696187,3558351,3137006
16920,3333088,3696355,3559140,3137783
16940,3334074,3697114,3559758,3138185
16960,3334927,3697723,3560667,3138727
16980,3335968,3698437,3561536,3139299
17000,3337023,3699259,3562401,3140263
17020,3338056,3700228,3563357,3140778
17040,3339248,3701523,3564390,3141736
17060,3340441,3702264,3565655,3142495
17080,3341837,3703648,3566685,3143366
17100,3343059,3704924,3567951,3143991
17120,3344670,3706406,3569399,3145185
17140,3345976,3707946,3570686,3146154
17160,3347423,3709355,3572129,3147050
17180,3348869,3710913,3573633,3148083
17200,3350330,3712594,3575126,3149233
17220,3352054,3714455,3576692,3150427
17240,3353095,3715648,3577608,3151339
17260,3353019,3715712,3577488,3150843
17280,3351102,3714683,3575837,3149101
17300,3348622,3712922,3573326,3146813
17320,3346314,3710709,3570283,3144271
17340,3343815,3708778,3566948,3142189
17360,3341284,3706474,3564098,3139664
17380,3339049,3704640,3561343,3137858
17400,3336680,3703101,3558729,3135828
17420,3334747,3701678,3556328,3134316
17440,3333075,3700443,3554171,3132704
17460,3331708,3699298,3552301,3131319
17480,3330612,3698675,3550733,3130283
17500,3329471,3697767,3549283,3129354
17520,3329063,3697668,3548671,3129050
17540,3328673,3697496,3547998,3128480
17560,3329084,3697927,3547583,3128994
17580,3328929,3698154,3547881,3129050
17600,3329086,3698348,3547754,3128920
17620,3329147,3698628,3547761,3128993
17640,3329046,3698966,3547830,3129145
17660,3329448,3699132,3547624,3128996
17680,3329684,3699738,3547843,3129404
17700,3329822,3700005,3547890,3129441
17720,3330536,3700373,3548295,3129668
17740,3331150,3701066,3548693,3130101
17760,3331529,3701724,3549275,3130728
17780,3332204,3702461,3549785,3131311
17800,3332892,3703244,3550786,3131817
17820,3333649,3704030,3551795,3132996
17840,3334801,3705131,3552496,3133489
17860,3335955,3706425,3553627,3134645
17880,3336839,3707422,3554895,3135244
17900,3338407,3709256,3556300,3136955
17920,3338568,3709801,3557278,3137545
17940,3340536,3711909,3558767,3139080
17960,3341573,3712639,3560009,3139779
17980,3342803,3714062,3561441,3140845
18000,3344331,3715287,3562789,3142027
18020,3345690,3716650,3564453,3143616
18040,3347319,3718370,3565988,3144881
18060,3348733,3719657,3567384,3146199
18080,3350213,3721332,3568929,3147701
18100,3351798,3723147,3570435,3148948
18120,3353614,3724511,3572274,3150198
18140,3354890,3725901,3573640,3151424
18160,3355224,3726555,3573938,3151690
18180,3353823,3725448,3572735,3150657
18200,3351458,3723529,3570283,3148436
18220,3348490,3721511,3567153,3146090
18240,3345505,3719152,3563504,3143782
18260,3342559,3716990,3560601,3141594
18280,3339723,3714651,3557159,3139396
18300,3337178,3712664,3554249,3137447
18320,3334803,3710641,3551096,3135485
18340,3332667,3708548,3548642,3133574
18360,3330663,3706901,3546261,3132109
18380,3328783,3705669,3543962,3130631
18400,3327329,3704453,3542316,3129530
18420,3326132,3703310,3540938,3128693
18440,3325325,3702827,3540241,3128327
18460,3324777,3702186,3539438,3128236
18480,3324847,3702022,3539521,3128181
18500,3324664,3702355,3539464,3127962
18520,3324320,3701763,3539553,3128061
18540,3324499,3701763,3539751,3128142
18560,3324440,3701507,3539721,3128100
18580,3324518,3701480,3539923,3128174
18600,3324575,3701068,3540051,3128479
18620,3324418,3700894,3539827,3128238
18640,3324716,3701195,3540326,3128735
18660,3324731,3701021,3540682,3128861
18680,3325132,3701465,3541236,3129422
18700,3325971,3701508,3541937,3129917
18720,3326405,3701754,3542606,3130448
18740,3326940,3702262,3543563,3131211
18760,3327808,3703182,3544598,3131761
18780,3328690,3703355,3545711,3132648
18800,3329507,3703877,3546527,3133620
18820,3330625,3704511,3548015,3134294
18840,3331716,3705585,3549067,3135314
18860,3332531,3706208,3550299,3136198
18880,3333674,3707007,3552016,3137684
18900,3334850,3707855,3553247,3138481
18920,3336252,3708820,3554617,3139583
18940,3337380,3709798,3556343,3140942
18960,3338891,3710964,3557871,3142180
18980,3340158,3712179,3559770,3143245
19000,3341692,3713382,3561403,3144628
19020,3342716,3714355,3562977,3145610
19040,3344410,3715269,3565002,3147044
19060,3345787,3716370,3566279,3148487
19080,3346450,3716886,3567544,3148922
19100,3345579,3716100,3566811,3148131
19120,3343301,3714192,3564673,3146269
19140,3340655,3711668,3561747,3143797
19160,3337768,3709217,3558374,3141596
19180,3335204,3706762,3554938,3139702
19200,3332586,3704457,3552160,3137301
19220,3330156,3701814,3549700,3135639
19240,3327855,3700010,3546916,3134007
19260,3325780,3697821,3544101,3132503
19280,3324059,3696266,3542249,3130998
19300,3322916,3694748,3540703,3130261
19320,3321540,3693639,3538936,3129141
19340,3320646,3692689,3537923,3128359
19360,3320438,3691869,3537009,3128284
19380,3320300,3691501,3537112,3128406
19400,3319928,3691251,3536672,3128295
19420,3320359,3691251,3536822,3128370
19440,3320355,3691218,3536693,3128483
19460,3320279,3690780,3536674,3128440
19480,3320121,3690702,3536442,3128387
19500,3320255,3690377,3536444,3128391
19520,3320168,3690326,3536253,3128612
19540,3320559,3690583,3536338,3128752
19560,3320778,3690520,3536348,3129001
19580,3321307,3690755,3536971,3129627
19600,3321508,3691442,3537230,3129898
19620,3322291,3691897,3537624,3130321
19640,3322790,3691994,3538403,3130899
19660,3323831,3692687,3538930,3131532
19680,3325056,3693958,3540006,3132607
19700,3325895,3695040,3540889,3133419
19720,3326702,3695940,3541710,3134118
19740,3328141,3697262,3542915,3135208
19760,3329329,3698401,3544073,3135949
19780,3330419,3699867,3544940,3137021
19800,3331961,3701208,3546366,3138124
19820,3333001,3702747,3547642,3139303
19840,3334588,3703985,3549205,3140476
19860,3336001,3705575,3550560,3141619
19880,3337219,3707203,3552261,3142739
19900,3339212,3708870,3553889,3144150
19920,3340583,3710464,3555112,3145485
19940,3341965,3711975,3556478,3146250
19960,3341858,3712267,3556347,3146148
19980,3340474,3711053,3554628,3144645
20000,3337914,3709513,3551908,3143086
20020,3334928,3707685,3548238,3140697
20040,3332270,3706021,3544917,3138517
20060,3329768,3703969,3541893,3136912
20080,3327438,3702179,3538684,3135194
20100,3325081,3700878,3535696,3133797
20120,3322958,3699404,3533363,3132558
20140,3321356,3698103,3531032,3131330
20160,3319607,3697368,3529007,3130308
20180,3318423,3696550,3527283,3129409
20200,3317686,3695806,3526242,3128853
20220,3317117,3695770,3525426,3128759
20240,3317083,3696078,3525048,3129237
20260,3317321,3696061,3524974,3129398
20280,3317114,3696259,3525118,3129536
20300,3317129,3697003,3525286,3130135
20320,3317435,3697177,3525564,3130574
20340,3317363,3697498,3525438,3130835
20360,3317856,3697757,3525639,3131222
20380,3318051,3698329,3526034,3131516
20400,3318551,3698970,3526327,3131927
20420,3318880,3699123,3526319,3132579
20440,3319383,3699795,3527186,3133032
20460,3320088,3700667,3528118,3133946
20480,3320725,3701429,3528864,3134670
20500,3321807,3702527,3529717,3135793
20520,3322503,3703199,3530645,3136742
20540,3323846,3704542,3532154,3137820
20560,3325109,3705876,3533652,3138752
20580,3325906,3706714,3534898,3139740
20600,3327337,3708128,3536223,3140975
20620,3328453,3709298,3537930,3142293
20640,3329953,3710798,3539343,3143506
20660,3331118,3712037,3540964,3144791
20680,3332474,3713516,3542256,3145920
20700,3334047,3715123,3544018,3147599
20720,3335643,3716581,3545924,3149059
20740,3337108,3718363,3547775,3150487
20760,3339006,3719772,3549521,3152029
20780,3340215,3721400,3551419,3153279
20800,3341926,3722992,3553397,3154751
20820,3343781,3724859,3555148,3156335
20840,3344864,3726187,3557116,3157687
20860,3344999,3726868,3557382,3158145
20880,3343643,3725737,3556171,3156866
20900,3341246,3724299,3553718,3155362
20920,3338686,3722118,3550838,3153521
20940,3335918,3719967,3547738,3151737
20960,3333127,3718200,3544808,3150291
20980,3330441,3716362,3542107,3148929
21000,3328100,3714559,3539394,3147250
21020,3325578,3712737,3536389,3146164
21040,3323761,3711155,3534087,3144954
21060,3322002,3709812,3532284,3143948
21080,3319970,3708701,3530450,3143234
21100,3318810,3707666,3528783,3142548
21120,3317884,3706898,3527625,3142391
21140,3317406,3706336,3527028,3142260
21160,3317673,3706508,3527211,3142531
21180,3317448,3706667,3527020,3142703
21200,3317550,3706859,3527374,3143007
21220,3317871,3707043,3527377,3143311
21240,3317994,3706847,3527676,3143841
21260,3317992,3707390,3528095,3144216
21280,3318205,3707530,3528244,3144531
21300,3318353,3707734,3528690,3144813
21320,3318686,3707991,3529037,3145514
21340,3319382,3708327,3529542,3146062
21360,3319826,3708982,3530313,3146793
21380,3320321,3709449,3531159,3147388
21400,3320685,3709938,3532162,3148391
21420,3321588,3710228,3532721,3149104
21440,3322440,3711274,3534134,3150013
21460,3323693,3712336,3535545,3151201
21480,3324297,3712685,3536920,3152050
21500,3325465,3713852,3538208,3153237
21520,3326683,3714826,3539969,3154142
21540,3327888,3715505,3541617,3155251
21560,3328891,3716557,3542987,3156562
21580,3330154,3717632,3544543,3157663
21600,3331316,3718842,3546268,3158955
21620,3332720,3720102,3548092,3160185
21640,3334113,3721075,3549906,3161556
21660,3335439,3722188,3551432,3163118
21680,3336626,3723538,3553387,3164310
21700,3338450,3724851,3555373,3165876
21720,3339508,3726012,3557258,3167224
21740,3341188,3727041,3558806,3168249
21760,3340972,3726895,3559174,3168243
21780,3339184,3725576,3557909,3167368
21800,3336779,3723789,3555781,3165733
21820,3334406,3721559,3553132,3164199
21840,3331660,3719064,3550129,3162667
21860,3328930,3716888,3547198,3160906
21880,3326624,3714515,3544864,3159616
21900,3324068,3712407,3542301,3158150
21920,3322153,3710615,3540222,3157133
21940,3320036,3708724,3538439,3156022
21960,3318555,3706892,3536750,3155351
21980,3317144,3705643,3535622,3154828
22000,3315649,3704424,3534408,3153965
22020,3315106,3703520,3533805,3153626
22040,3314873,3702991,3533741,3153668
22060,3314648,3702440,3533911,3154125
22080,3314480,3702534,3534109,3154190
22100,3314492,3701988,3534205,3154140
22120,3314290,3701713,3534147,3154382
22140,3314233,3701646,3534470,3154481
22160,3314379,3701078,3534489,3154956
22180,3314020,3700881,3534929,3154854
22200,3314206,3700751,3535178,3155070
22220,3314488,3700669,3535449,3155650
22240,3314620,3700339,3535856,3155766
22260,3315149,3700449,3536585,3156420
22280,3315553,3700405,3537498,3156756
22300,3316406,3700462,3538065,3157574
22320,3316991,3700756,3539306,3158246
22340,3317899,3700919,3540414,3158965
22360,3318610,3701280,3541555,3159741
22380,3320087,3702209,3542764,3160562
22400,3320746,3702700,3543943,3161660
22420,3322081,3703397,3545257,3162527
22440,3323220,3704089,3546786,3163394
22460,3324457,3705061,3548397,3164467
22480,3325865,3705904,3550140,3165608
22500,3327304,3706852,3551551,3166686
22520,3328743,3707768,3553128,3167969
22540,3330119,3708803,3554912,3168828
22560,3331683,3710127,3556784,3169813
22580,3333490,3711421,3558260,3171288
22600,3334933,3712288,3559800,3172347
22620,3335249,3712832,3560425,3172370
22640,3333966,3711799,3559472,3171320
22660,3332193,3710342,3557258,3169915
22680,3330103,3708229,3554598,3168256
22700,3327506,3706357,3552237,3166677
22720,3325302,3704544,3549313,3165154
22740,3323083,3702611,3547028,3163796
22760,3321248,3700815,3544787,3162517
22780,3319533,3699761,3542911,3161764
22800,3318119,3698424,3541068,3161063
22820,3316759,3697028,3539674,3159875
22840,3315721,3696191,3538344,3159223
22860,3314862,3695643,3537676,3158933
22880,3314872,3695096,3537462,3158991
22900,3314730,3695109,3537241,3159072
22920,3314702,3695399,3537462,3159459
22940,3315055,3695694,3537931,3159844
22960,3315134,3695732,3538274,3159892
22980,3315688,3695796,3538677,3160083
23000,3316324,3695985,3538952,3160453
23020,3316158,3696438,3539067,3160819
23040,3316730,3696561,3539487,3160723
23060,3316909,3697003,3539783,3161237
23080,3317590,3697522,3540439,3161953
23100,3318031,3697872,3541244,3162142
23120,3319029,3698848,3541742,3162877
23140,3319601,3699289,3542813,3163806
23160,3320355,3700256,3543580,3164416
23180,3321806,3701423,3545040,3165294
23200,3322714,3702481,3546064,3165970
23220,3323989,3703423,3547324,3167047
23240,3325202,3704699,3548841,3168126
23260,3326677,3706100,3550010,3169161
23280,3327746,3707424,3551413,3170200
23300,3329107,3708559,3552959,3171293
23320,3330674,3710414,3554727,3172642
23340,3331970,3711937,3556432,3173934
23360,3333712,3713400,3558062,3174865
23380,3335323,3715217,3559643,3176306
23400,3336611,3716960,3561500,3177646
23420,3338212,3718459,3563175,3179221
23440,3339633,3719914,3564983,3180424
23460,3341465,3721757,3566840,3181618
23480,3342246,3723021,3568323,3182521
23500,3342096,3723166,3568144,3182208
23520,3340436,3722605,3566609,3181225
23540,3338248,3721004,3564532,3179648
23560,3335668,3719199,3561970,3178231
23580,3333145,3717715,3559263,3176905
23600,3330278,3715715,3556548,3175328
23620,3327933,3714388,3553752,3173941
23640,3325336,3712885,3551275,3172950
23660,3323400,3711311,3549158,3171782
23680,3321454,3710036,3547158,3170619
23700,3319545,3709053,3545412,3169990
23720,3318083,3708023,3544204,3169355
23740,3316660,3707341,3542786,3169021
23760,3316420,3707095,3542264,3168944
23780,3316056,3706975,3541842,3169200
23800,3315865,3707309,3542140,3169525
23820,3315865,3707559,3542216,3169926
23840,3315889,3707679,3542438,3170230
23860,3316086,3707796,3542876,3170351
23880,3316099,3708210,3543344,3170939
23900,3316658,3708367,3543429,3171284
23920,3316938,3708489,3544204,3171603
23940,3317119,3708822,3544589,3171950
23960,3317340,3709291,3545142,3172606
23980,3317800,3709961,3545543,3172833
24000,3318030,3710369,3546482,3173301
24020,3318925,3710862,3547222,3174031
24040,3319526,3711960,3548118,3174550
24060,3320474,3712693,3549105,3175356
24080,3321455,3713592,3550388,3176042
24100,3322436,3714912,3551774,3176935
24120,3323591,3715975,3553000,3177893
24140,3324430,3716986,3554530,3178798
24160,3325956,3718323,3555873,3179771
24180,3326939,3719602,3557490,3180947
24200,3328634,3720817,3558943,3182147
24220,3329812,3722269,3560463,3183367
24240,3331471,3723486,3561793,3184300
24260,3332631,3725253,3563914,3185679
24280,3334021,3726636,3565355,3186737
24300,3335681,3728095,3567365,3188174
24320,3337504,3729536,3569138,3189623
24340,3338709,3731084,3571029,3190819
24360,3340445,3732520,3572961,3192009
24380,3341838,3733801,3574622,3193148
24400,3342277,3734352,3575633,3193895
24420,3340965,3733472,3574352,3192677
24440,3338798,3732027,3572757,3191180
24460,3336356,3730382,3570369,3189266
24480,3333841,3728185,3568115,3187800
24500,3331173,3726349,3565502,3186253
24520,3328383,3724757,3563120,3184846
24540,3325943,3722928,3560769,3183474
24560,3323430,3721181,3558468,3182079
24580,3321739,3719867,3556999,3181326
24600,3319807,3718429,3555326,3180022
24620,3318181,3717276,3554180,3179372
24640,3316881,3716098,3552968,3178658
24660,3315805,3715411,3552280,3178367
24680,3315335,3715059,3551921,3177989
24700,3315060,3714676,3552273,3178248
24720,3315168,3714999,3552549,3178014
24740,3315021,3714974,3552911,3178080
24760,3314913,3715023,3553295,3178050
24780,3315011,3714831,3553540,3178175
24800,3315150,3714592,3553980,3177976
24820,3314864,3714506,3554128,3178105
24840,3315044,3714887,3554589,3178313
24860,3315367,3715010,3555155,3178518
24880,3315301,3714702,3555850,3178505
24900,3316009,3715093,3556457,3178603
24920,3316355,3715427,3557133,3178915
24940,3316798,3715688,3557994,3179359
24960,3317801,3715941,3558778,3179678
24980,3318453,3716661,3559922,3180537
25000,3319736,3717573,3561260,3181329
25020,3320107,3717475,3562539,3181531
25040,3321227,3717928,3563742,3182215
25060,3322189,3718637,3565229,3182857
25080,3323305,3719413,3566628,3183728
25100,3324401,3720180,3568194,3184659
25120,3325617,3721410,3569762,3185262
25140,3326740,3722165,3571234,3186210
25160,3327992,3723162,3572829,3187149
25180,3329420,3724258,3574297,3188016
25200,3330625,3725225,3576264,3188797
25220,3332452,3726305,3578062,3189778
25240,3333605,3727441,3579437,3190788
25260,3335037,3728306,3581411,3191931
25280,3336669,3729229,3582871,3192891
25300,3337402,3730112,3584312,3193562
25320,3336854,3729715,3584386,3192814
25340,3335226,3728480,3582843,3191478
25360,3332584,3726511,3580391,3189480
25380,3330119,3724400,3577690,3187666
25400,3327272,3722337,3575247,3185949
25420,3324682,3720382,3572990,3184234
25440,3322582,3718318,3570510,3182725
25460,3320179,3716597,3568373,3180993
25480,3318158,3714799,3566404,3179807
25500,3316772,3713420,3564830,3178647
25520,3315211,3712141,3563493,3177434
25540,3313916,3711089,3562183,3176397
25560,3312915,3710012,3561162,3175724
25580,3312773,3709117,3560737,3175559
25600,3312554,3708865,3560563,3175349
25620,3312613,3708693,3560754,3175311
25640,3312741,3708725,3560963,3175358
25660,3312796,3708624,3560801,3175156
25680,3312805,3708626,3560966,3174831
25700,3312748,3708321,3561123,3174895
25720,3312890,3708437,3560888,3174679
25740,3313026,3708216,3561135,3174718
25760,3313425,3708652,3561453,3174540
25780,3313836,3709228,3561859,3174614
25800,3314429,3709109,3562265,3174922
25820,3314669,3709783,3562524,3175064
25840,3315563,3710401,3563164,3175320
25860,3316262,3711121,3563980,3175736
25880,3317048,3712071,3564851,3176023
25900,3318225,3712630,3565956,3176477
25920,3318840,3713562,3566821,3177193
25940,3320308,3714422,3568138,3177612
25960,3321540,3715811,3569146,3178343
25980,3322675,3716719,3570248,3179219
26000,3324072,3717904,3571326,3179667
26020,3325451,3719171,3572909,3181010
26040,3326694,3720845,3574236,3181865
26060,3328385,3722118,3576005,3182417
26080,3329465,3723610,3576974,3183575
26100,3330895,3725006,3578721,3184532
26120,3332546,3726557,3580540,3185518
26140,3334038,3728130,3581972,3186732
26160,3335506,3729919,3583610,3187239
26180,3336787,3731239,3584837,3188223
26200,3336473,3731430,3584635,3187825
26220,3334673,3730750,3583049,3186531
26240,3332514,3728999,3580426,3184102
26260,3329748,3727435,3577646,3182018
26280,3327153,3725598,3575034,3180290
26300,3324529,3723969,3571995,3178114
26320,3322195,3722449,3569575,3176317
26340,3319785,3721349,3567095,3174338
26360,3318068,3720027,3564704,3172829
26380,3315791,3718982,3562796,3171412
26400,3314447,3717805,3561086,3170232
26420,3313071,3716839,3559360,3168615
26440,3311949,3716446,3558268,3167848
26460,3311232,3716280,3557635,3167075
26480,3311182,3716604,3557180,3166664
26500,3311287,3716652,3557501,3166624
26520,3311324,3717195,3557390,3166577
26540,3311483,3717522,3557581,3166169
26560,3311625,3717828,3557694,3166057
26580,3311806,3718125,3558225,3165829
26600,3312014,3718652,3558253,3165523
26620,3312144,3719379,3558104,3165609
26640,3312665,3719683,3558089,3165251
26660,3312992,3719967,3558623,3165207
26680,3313584,3720624,3559056,3165262
26700,3314045,3721372,3559287,3165483
26720,3315161,3722413,3559889,3165885
26740,3315497,3722983,3560609,3165918
26760,3317119,3724309,3561830,3166686
26780,3317686,3724951,3562280,3167204
26800,3319048,3725892,3563888,3168252
26820,3320453,3727057,3564741,3168912
26840,3321660,3727918,3566024,3169879
26860,3322618,3729082,3567342,3170413
26880,3324159,3730163,3568614,3171258
26900,3325550,3730850,3570097,3171964
26920,3326963,3732002,3571513,3172742
26940,3328426,3733423,3573222,3174017
26960,3329943,3734794,3574892,3174894
26980,3331288,3736165,3576509,3176102
27000,3332892,3737712,3578024,3177013
27020,3334459,3739375,3579918,3178121
27040,3336069,3740791,3581819,3179455
27060,3337871,3742762,3583561,3180653
27080,3339346,3744216,3585228,3181920
27100,3340845,3746141,3587121,3182992
27120,3342455,3747599,3588547,3184074
27140,3342486,3748069,3588592,3183990
27160,3340953,3747504,3587306,3182770
27180,3338373,3745810,3584844,3180660
27200,3335861,3744099,3581995,3178348
27220,3333269,3742590,3578810,3175991
27240,3330379,3740478,3576008,3173830
27260,3327865,3739007,3573081,3171664
27280,3325408,3737314,3570185,3169519
27300,3323032,3735471,3567953,3167619
27320,3320945,3734004,3565557,3165855
27340,3318961,3732461,3563340,3164076
27360,3317484,3731364,3561551,3162567
27380,3316256,3730435,3560238,3161454
27400,3315283,3729494,3559035,3160251
27420,3314689,3729199,3558307,3159735
27440,3314454,3729131,3558109,3159204
27460,3314616,3728962,3558175,3159144
27480,3314337,3728961,3557835,3158974
27500,3314650,3728844,3558000,3158587
27520,3314407,3728646,3557822,3158398
27540,3314724,3728457,3557977,3158350
27560,3314467,3728589,3558196,3158094
27580,3314957,3728247,3557851,3157850
27600,3315011,3728283,3558531,3157680
27620,3315344,3728094,3558803,3157657
27640,3315565,3728142,3559210,3157600
27660,3316313,3728551,3560075,3157682
27680,3316836,3729086,3560729,3158269
27700,3317597,3729309,3561422,3158381
27720,3318237,3729704,3562382,3158700
27740,3319006,3729968,3563296,3159319
27760,3320181,3730782,3564330,3159797
27780,3321229,3731289,3565595,3160498
27800,3322337,3731802,3566950,3161118
27820,3323521,3732506,3568055,3161638
27840,3324792,3733366,3569578,3162588
27860,3326038,3734252,3571111,3163112
27880,3327166,3735099,3572214,3164082
27900,3328468,3736051,3573408,3164814
27920,3330064,3737084,3575045,3165591
27940,3331809,3737982,3576536,3166811
27960,3333307,3738901,3577946,3167767
27980,3334795,3740308,3579692,3169055
28000,3336428,3741111,3581388,3169764
28020,3337923,3742280,3582948,3170647
28040,3339752,3743445,3584337,3171826
28060,3341180,3744558,3585880,3172501
28080,3341276,3744664,3586053,3172463
28100,3340109,3743596,3584846,3170919
28120,3337892,3742137,3582535,3168569
28140,3335504,3739522,3579550,3166233
28160,3332893,3737611,3576432,3163949
28180,3330710,3735510,3573470,3161596
28200,3328462,3733315,3570130,3159325
28220,3326598,3731446,3567898,3157117
28240,3324786,3729675,3565336,3155328
28260,3323375,3728086,3563228,3153492
28280,3321967,3726827,3561439,3152204
28300,3320974,3725312,3559651,3150850
28320,3319934,3724530,3558351,3149556
28340,3319971,3723861,3557573,3148957
28360,3319886,3723402,3556895,3148697
28380,3320170,3723297,3556974,3148317
28400,3320323,3722957,3556752,3147888
28420,3320840,3722722,3556663,3147570
28440,3321180,3722603,3556536,3147387
28460,3321173,3722167,3556264,3146783
28480,3321268,3721990,3555793,3146232
28500,3320903,3721395,3555359,3146088
28520,3321590,3721865,3555790,3146092
28540,3322036,3721685,3555594,3145818
28560,3322620,3722188,3555509,3145859
28580,3323268,3722583,3555867,3145701
28600,3324082,3722928,3556311,3146141
28620,3324756,3723741,3556872,3146702
28640,3325751,3724422,3557490,3146950
28660,3326706,3725013,3557990,3147314
28680,3327784,3725873,3558712,3147873
28700,3329189,3726774,3559985,3148436
28720,3329932,3727813,3560504,3149123
28740,3331330,3728666,3561851,3149663
28760,3332693,3730014,3562703,3150589
28780,3334033,3730943,3563831,3151214
28800,3335532,3732318,3564975,3152053
28820,3336826,3733738,3566237,3153132
28840,3338441,3735149,3567595,3153814
28860,3340033,3736772,3569171,3155021
28880,3341826,3738268,3570423,3156029
28900,3343052,3739685,3571806,3157227
28920,3345002,3741441,3573638,3158258
28940,3346520,3742937,3574592,3159297
28960,3347676,3744069,3575884,3159734
28980,3346819,3743776,3574777,3158766
29000,3344898,3742697,3572603,3157227
29020,3342853,3740869,3569401,3154832
29040,3340056,3738954,3565930,3152160
29060,3337716,3736945,3562666,3149889
29080,3335284,3735138,3559209,3147605
29100,3333332,3733672,3556276,3145657
29120,3331430,3731999,3553389,3143627
29140,3329580,3730710,3550760,3141978
29160,3328009,3729492,3548267,3140262
29180,3326792,3728455,3546493,3138810
29200,3325861,3727507,3544449,3137560
29220,3325094,3726704,3543263,3136479
29240,3324675,3726628,3542341,3136489
29260,3324650,3726644,3542124,3136226
29280,3324745,3726555,3541669,3136181
29300,3324998,3727058,3541695,3135892
29320,3324818,3727108,3541478,3136030
29340,3325321,3727615,3541357,3136022
29360,3325534,3727369,3541461,3136063
29380,3325581,3727301,3541109,3136071
29400,3325989,3727629,3541786,3136055
29420,3326350,3727732,3541682,3136126
29440,3326645,3728571,3541977,3136415
29460,3327255,3728689,3542396,3136783
29480,3327833,3729456,3543081,3137165
29500,3328761,3729781,3543754,3137724
29520,3329813,3730695,3544451,3138321
29540,3330574,3731453,3545286,3138969
29560,3331603,3732516,3546155,3140038
29580,3332860,3733322,3547641,3140835
29600,3334193,3734540,3548767,3141732
29620,3335517,3735461,3549949,3142601
29640,3336743,3736483,3551427,3143825
29660,3337893,3737751,3552669,3144581
29680,3339461,3738763,3554016,3145646
29700,3340778,3740110,3555361,3146679
29720,3342210,3741396,3557212,3148130
29740,3343917,3742975,3558897,3149426
29760,3345277,3744235,3560579,3150483
29780,3347031,3745534,3562183,3151483
29800,3348564,3746977,3563910,3152667
29820,3350085,3748476,3565531,3154118
29840,3351933,3750028,3567157,3155448
29860,3353539,3751545,3569125,3156940
29880,3355157,3752935,3570561,3157807
29900,3355558,3753925,3571326,3158347
29920,3354461,3753022,3570434,3157516
29940,3352184,3751585,3568043,3155623
29960,3349786,3749429,3564904,3153358
29980,3347198,3747278,3561650,3151014
30000,3344463,3745168,3558230,3148984
30020,3341873,3742790,3554927,3146655
30040,3339705,3740784,3552386,3144815
30060,3337334,3739029,3549332,3142849
30080,3335458,3737323,3547052,3141071
30100,3333660,3735830,3544965,3139564
30120,3332136,3734095,3542872,3138329
30140,3330876,3732918,3541142,3136747
30160,3329745,3731585,3540245,3136109
30180,3329063,3730883,3539198,3135074
30200,3329080,3730652,3538814,3135304
30220,3329100,3730334,3538782,3134719
30240,3329157,3730000,3538586,3135177
30260,3328859,3729579,3538537,3134596
30280,3329219,3729558,3538796,3134778
30300,3329042,3729180,3539060,3134785
30320,3328937,3728789,3539247,3134677
30340,3329201,3728910,3539491,3134768
30360,3329378,3728485,3539700,3134976
30380,3329945,3728374,3539985,3135215
30400,3330096,3728464,3540437,3135097
30420,3330593,3728340,3540947,3135346
30440,3331188,3728457,3541797,3136103
30460,3331567,3728709,3542659,3136515
30480,3332663,3729144,3543816,3137341
30500,3333424,3729356,3545004,3138007
30520,3334429,3729924,3546075,3138625
30540,3335840,3730544,3547441,3139543
30560,3336556,3731043,3548848,3139970
30580,3337740,3731764,3550267,3141039
30600,3338961,3732386,3551483,3142029
30620,3340264,3733047,3552988,3142894
30640,3341203,3734226,3554507,3143976
30660,3342666,3735008,3556230,3145025
30680,3343995,3735952,3557944,3146045
30700,3345626,3736844,3559449,3147142
30720,3346807,3738015,3561387,3148457
30740,3348516,3739154,3563134,3149388
30760,3349674,3739832,3564651,3150814
30780,3351386,3741096,3566392,3151752
30800,3352853,3742416,3568372,3152962
30820,3353962,3742782,3569607,3153944
30840,3353139,3742570,3569199,3153406
30860,3351518,3740870,3567726,3151785
30880,3348994,3738750,3565051,3149813
30900,3346760,3736275,3562414,3147614
30920,3343961,3733965,3559555,3145512
30940,3341660,3731521,3556834,3143704
30960,3339405,3729524,3554408,3142025
30980,3337508,3727176,3551944,3140113
31000,3335757,3725586,3550331,3139063
31020,3334353,3723782,3548295,3137469
31040,3333073,3722481,3546838,3136485
31060,3332015,3721121,3545339,3135341
31080,3331171,3720106,3544653,3134781
31100,3331105,3719544,3544070,3134496
31120,3331192,3719194,3544264,3134581
31140,3331190,3718952,3544479,3134500
31160,3331764,3718718,3544748,3134494
31180,3331505,3718574,3544840,3134539
31200,3331603,3718423,3544738,3134496
31220,3331696,3717997,3544777,3134789
31240,3331755,3717794,3545048,3134575
31260,3332062,3717728,3545104,3134855
31280,3332077,3717824,3545611,3134921
31300,3332423,3717896,3546147,3135070
31320,3332782,3718140,3546619,3135133
31340,3333545,3718442,3546937,3135742
31360,3334388,3718926,3547956,3136466
31380,3335272,3719166,3548801,3136623
31400,3336352,3720140,3549592,3137673
31420,3337393,3720707,3550943,3138234
31440,3338549,3721740,3551844,3139209
31460,3339459,3722607,3553087,3140217
31480,3340738,3723661,3554356,3141354
31500,3341983,3724806,3555518,3142029
31520,3343231,3725833,3556912,3143190
31540,3344433,3727086,3558253,3144318
31560,3345868,3728344,3559605,3145470
31580,3347339,3729528,3561299,3146787
31600,3348843,3731064,3562816,3147873
31620,3350358,3732592,3564480,3149522
31640,3351692,3733895,3566012,3150792
31660,3353414,3735563,3567783,3152251
31680,3355361,3737236,3569231,3153772
31700,3356450,3738470,3570627,3154947
31720,3356927,3739294,3571428,3155054
31740,3355405,3738482,3570015,3153878
31760,3353225,3736687,3567492,3152303
31780,3350430,3734902,3564501,3150276
31800,3347755,3732969,3561704,3148315
31820,3345738,3731130,3558910,3146456
31840,3343266,3729541,3556215,3144541
31860,3341210,3727811,3553621,3142960
31880,3339392,3726239,3551309,3141519
31900,3337674,3724505,3549264,3140095
31920,3335968,3723247,3547705,3138872
31940,3334869,3722337,3546285,3138026
31960,3333914,3721345,3545329,3137022
31980,3333113,3720769,3544217,3136571
32000,3332779,3720326,3543998,3136670
32020,3333024,3720776,3544113,3136832
32040,3332695,3720254,3544039,3136609
32060,3333103,3720939,3544544,3137240
32080,3333294,3720973,3544916,3137223
32100,3333390,3720999,3544942,3137505
32120,3333484,3720909,3545426,3137864
32140,3333438,3721256,3546004,3138160
32160,3333584,3721551,3546183,3138293
32180,3334068,3721533,3546581,3138494
32200,3334331,3722020,3547137,3139060
32220,3335190,3722395,3547946,3139390
32240,3335755,3723029,3548844,3140268
32260,3336233,3723824,3549562,3140943
32280,3337275,3724430,3550514,3141595
32300,3338120,3725099,3551967,3142496
32320,3339467,3725826,3553072,3143254
32340,3340264,3726814,3554332,3144271
32360,3341329,3727628,3555777,3145236
32380,3342769,3728716,3557129,3146457
32400,3344015,3729520,3558640,3147754
32420,3345003,3730793,3560142,3148609
32440,3346771,3731944,3561528,3149813
32460,3347885,3732953,3563045,3151080
32480,3349066,3734341,3564960,3152168
32500,3350647,3735620,3566573,3153430
32520,3352207,3736713,3568081,3154694
32540,3353531,3737926,3569960,3155804
32560,3355129,3739303,3571965,3157332
32580,3356992,3740718,3573338,3158812
32600,3358435,3742199,3575614,3159820
32620,3359787,3743477,3577166,3161554
32640,3360827,3744301,3578523,3161936
32660,3360184,3743702,3577703,3161662
32680,3358163,3742178,3575839,3159737
32700,3355804,3740013,3573143,3158049
32720,3353002,3738036,3570255,3155810
32740,3350634,3735410,3567722,3153795
32760,3348192,3733187,3564989,3151908
32780,3345760,3731058,3562401,3150334
32800,3343458,3728942,3559951,3148517
32820,3341733,3727243,3558004,3147463
32840,3339847,3725232,3556207,3146020
32860,3338567,3723623,3554489,3144701
32880,3336928,3722070,3553420,3143512
32900,3335974,3720680,3552048,3143175
32920,3335430,3719868,3551676,3142620
32940,3335145,3719536,3551789,3142388
32960,3335202,3719120,3551744,3142395
32980,3335235,3718763,3552007,3142275
33000,3335230,3718437,3552337,3142561
33020,3335298,3718208,3552528,3142484
33040,3335336,3718040,3553100,3142472
33060,3335472,3717282,3553302,3142626
33080,3335599,3717023,3553712,3142598
33100,3335767,3716793,3554231,3142816
33120,3335914,3716680,3554683,3143022
33140,3336584,3716508,3555569,3143300
33160,3337151,3716618,3556454,3143855
33180,3337716,3716940,3557220,3144326
33200,3338254,3716776,3558352,3144809
33220,3339119,3717311,3559481,3145204
33240,3340181,3717672,3560790,3146069
33260,3341057,3718216,3561817,3146646
33280,3342057,3718882,3563032,3147476
33300,3343262,3719369,3564599,3148276
33320,3344347,3719963,3565969,3149197
33340,3345898,3720439,3567156,3150100
33360,3347028,3721444,3568835,3150948
33380,3348320,3722383,3570238,3151831
33400,3349927,3723368,3571972,3153139
33420,3350825,3724324,3573696,3154002
33440,3352506,3725045,3575449,3155313
33460,3353945,3726284,3577244,3156243
33480,3355604,3727488,3579278,3157718
33500,3356884,3728238,3580812,3158747
33520,3358418,3729416,3582725,3159924
33540,3359842,3730303,3584492,3161163
33560,3361493,3731362,3586153,3162028
33580,3361867,3731351,3586624,3162204
33600,3360397,3730116,3585813,3160946
33620,3358278,3727900,3583848,3159016
33640,3355598,3725452,3581273,3156881
33660,3353159,3722941,3578381,3154930
33680,3350857,3720282,3575950,3152797
33700,3348909,3718091,3573366,3150922
33720,3346505,3715607,3571233,3149033
33740,3344999,3713480,3569411,3147527
33760,3343606,3711812,3567599,3146224
33780,3342538,3710125,3566018,3144811
33800,3341338,3708674,3564976,3143502
33820,3340277,3707073,3563836,3142629
33840,3340124,3706399,3563149,3142135
33860,3339546,3705063,3562692,3141679
33880,3339809,3704749,3562994,3141423
33900,3339469,3704168,3562932,3141332
33920,3340030,3703674,3563249,3141286
33940,3340251,3703573,3563055,3141156
33960,3340015,3702870,3563289,3140803
33980,3340160,3702481,3562936,3140414
34000,3340396,3702028,3562864,3140529
34020,3340497,3701973,3562991,3140134
34040,3340474,3701518,3563083,3140183
34060,3341278,3701869,3563566,3140053
34080,3341839,3701537,3563980,3140469
34100,3342255,3702086,3564604,3140559
34120,3343014,3702430,3565240,3141105
34140,3343951,3702921,3566243,3141564
34160,3345104,3703312,3567023,3142140
34180,3346051,3704083,3568296,3142958
34200,3347087,3704645,3568773,3143585
34220,3348466,3705679,3570331,3144274
34240,3349499,3706434,3571260,3145085
34260,3350598,3707819,3572616,3145763
34280,3351918,3708752,3573883,3146719
34300,3353496,3710152,3575102,3147463
34320,3354829,3711379,3576959,3148668
34340,3356484,3712304,3578370,3149545
34360,3357449,3714137,3579813,3150569
34380,3359209,3715477,3581014,3151649
34400,3360785,3717063,3582788,3153013
34420,3362415,3718502,3584420,3154271
34440,3363629,3719702,3585674,3155067
34460,3364177,3720690,3586528,3155251
34480,3363034,3719861,3585192,3154242
34500,3360656,3717925,3582880,3152514
34520,3358324,3716013,3579919,3150151
34540,3355639,3713799,3576858,3147801
34560,3353168,3711429,3573933,3145378
34580,3350942,3709412,3570789,3143404
34600,3348480,3707352,3568111,3141249
34620,3346694,3705555,3565650,3139532
34640,3344703,3703739,3563385,3137518
34660,3343192,3702175,3561438,3136094
34680,3341805,3700605,3559327,3134798
34700,3340772,3700030,3558234,3133646
34720,3340124,3698936,3557148,3132896
34740,3339847,3698839,3556376,3132337
34760,3339618,3698527,3555822,3132067
34780,3339826,3698540,3555924,3131999
34800,3339810,3698550,3556028,3131970
34820,3339811,3698471,3556000,3131729
34840,3339826,3698286,3556198,3131609
34860,3340111,3698286,3555941,3131685
34880,3340220,3698318,3556207,3131394
34900,3340134,3698386,3556357,3131145
34920,3340880,3698663,3556709,3131767
34940,3341338,3699030,3557021,3131791
34960,3341924,3699673,3557533,3132184
34980,3342495,3700084,3558342,3132507
35000,3342982,3700879,3558955,3132715
35020,3343940,3701191,3559970,3133323
35040,3344574,3702012,3560561,3133890
35060,3345602,3702876,3561733,3134638
35080,3346807,3703938,3563017,3135130
35100,3347744,3704649,3564020,3136205
35120,3348872,3706044,3565312,3137058
35140,3350415,3707001,3566549,3137745
35160,3351505,3708144,3567864,3138644
35180,3353055,3709677,3569293,3139813
35200,3354081,3710732,3570446,3140737
35220,3355611,3712381,3572053,3141861
35240,3356948,3713463,3573376,3142963
35260,3358313,3714779,3574892,3144080
35280,3359916,3716169,3576805,3145425
35300,3360949,3717692,3578379,3146526
35320,3363110,3718858,3580036,3147518
35340,3364311,3720771,3581505,3149103
35360,3365928,3721768,3583572,3150368
35380,3366803,3722760,3584172,3150808
35400,3365639,3722371,3583651,3150134
35420,3363533,3720595,3581690,3148434
35440,3360898,3718327,3578752,3145922
35460,3357976,3715526,3575618,3143319
35480,3355262,3712983,3572448,3140960
35500,3352536,3710074,3569452,3138470
35520,3349655,3707721,3566657,3136175
35540,3347781,3705215,3563982,3134311
35560,3345468,3703227,3561175,3131976
35580,3343739,3701335,3559050,3130270
35600,3341312,3699011,3556475,3128497
35620,3340109,3697513,3554632,3126695
35640,3338832,3696132,3553098,3125289
35660,3338137,3694884,3551693,3124562
35680,3337655,3694179,3551070,3123818
35700,3337391,3693760,3550552,3123452
35720,3337262,3693146,3550410,3123127
35740,3337274,3693127,3550019,3122594
35760,3337251,3692517,3549689,3122288
35780,3337156,3692551,3549664,3122011
35800,3336996,3692035,3549628,3121627
35820,3337194,3691561,3549351,3121446
35840,3337055,3691378,3549723,3121310
35860,3337104,3691212,3549313,3121019
35880,3337126,3691205,3549778,3120939
35900,3337531,3691040,3549891,3121037
35920,3337814,3691025,3550486,3121257
35940,3338284,3691129,3550762,3121466
35960,3339129,3691595,3551625,3121925
35980,3339933,3692071,3552872,3122375
36000,3340459,3692666,3553474,3123004
36020,3341923,3693008,3554574,3123707
36040,3342549,3693669,3555716,3124287
36060,3343639,3694349,3556980,3125142
36080,3344884,3694923,3558179,3126202
36100,3345896,3695959,3559719,3127043
36120,3347162,3696556,3560674,3127728
36140,3348428,3697777,3562522,3128911
36160,3349519,3698724,3563872,3129908
36180,3350895,3699874,3565195,3130759
36200,3352007,3700647,3566865,3131942
36220,3353741,3701790,3568387,3132728
36240,3355077,3702842,3569904,3134033
36260,3356512,3703894,3571226,3135023
36280,3357056,3704623,3572393,3135608
36300,3356587,3703819,3571904,3134587
36320,3354434,3701924,3569773,3132449
36340,3351630,3699149,3566800,3129795
36360,3349214,3696552,3563387,3127284
36380,3346252,3693851,3560367,3124224
36400,3344142,3691244,3557167,3121725
36420,3342026,3689317,3554545,3119506
36440,3339716,3686919,3551345,3117288
36460,3337876,3684695,3548920,3115415
36480,3336403,3683010,3546850,3113612
36500,3334913,3681214,3544946,3111891
36520,3333702,3679903,3543136,3110331
36540,3332869,3678936,3541869,3109380
36560,3332255,3678139,3541290,3108949
36580,3332503,3677926,3540828,3108643
36600,3332846,3677333,3540439,3108084
36620,3332387,3677096,3540199,3107974
36640,3332661,3676820,3539963,3107406
36660,3332641,3676505,3539631,3107266
36680,3332412,3676191,3539226,3106852
36700,3332595,3675777,3539132,3106620
36720,3332527,3675608,3538710,3106053
36740,3332825,3675676,3538773,3106423
36760,3332946,3675899,3538603,3106244
36780,3333607,3676216,3538883,3106351
36800,3333910,3676594,3539046,3106505
36820,3334784,3677355,3539404,3106508
36840,3335394,3677858,3539933,3107107
36860,3336311,3678662,3540449,3107755
36880,3337247,3679478,3541321,3108316
36900,3338275,3680402,3542307,3108943
36920,3339355,3681605,3542868,3109835
36940,3340657,3682525,3544169,3110515
36960,3341498,3683849,3544965,3111442
36980,3342872,3685005,3545807,3112060
37000,3344240,3686246,3547126,3113189
37020,3345545,3687973,3548348,3114475
37040,3347008,3689391,3549466,3115350
37060,3348514,3691252,3550862,3116472
37080,3350056,3692729,3552501,3117467
37100,3351593,3694418,3553867,3118714
37120,3353135,3695966,3555401,3119793
37140,3353806,3696958,3555754,3120291
37160,3353099,3696878,3555070,3119534
37180,3351021,3695436,3552904,3117329
37200,3348623,3693460,3549585,3114884
37220,3345842,3691463,3545889,3112091
37240,3343250,3689449,3542057,3109402
37260,3340651,3687094,3538489,3106639
37280,3338288,3685301,3535325,3104226
37300,3336012,3683380,3532107,3102117
37320,3334310,3681962,3529372,3100152
37340,3331857,3680186,3526387,3098216
37360,3330553,3678943,3524170,3096784
37380,3329089,3678108,3521930,3095136
37400,3328137,3676740,3520466,3094172
37420,3327584,3676730,3519155,3093632
37440,3327380,3676348,3518587,3093324
37460,3327370,3676548,3518238,3093018
37480,3327244,3676631,3518080,3093078
37500,3327561,3677179,3517978,3093155
37520,3327497,3677200,3517596,3093042
37540,3327773,3677119,3517767,3092926
37560,3327812,3677291,3517466,3093040
37580,3327590,3677544,3517396,3092857
37600,3327775,3678010,3517532,3093243
37620,3328012,3678061,3517827,3093267
37640,3328732,3678370,3518080,3093987
37660,3329550,3679025,3518553,3094043
37680,3330160,3679920,3519064,3094731
37700,3330873,3680772,3519782,3095751
37720,3331634,3681552,3520738,3096391
37740,3332393,3682549,3521590,3097103
37760,3333498,3683506,3522541,3098101
37780,3334807,3684610,3523739,3098927
37800,3336078,3685947,3525194,3100226
37820,3337098,3686969,3526380,3101244
37840,3338547,3688232,3527594,3102073
37860,3339689,3689395,3529100,3103488
37880,3340980,3690787,3530254,3104891
37900,3342398,3691922,3531799,3106114
37920,3343845,3693637,3533477,3107351
37940,3345379,3695144,3535044,3108915
37960,3346898,3696813,3536725,3110352
37980,3348834,3698322,3538516,3111876
38000,3350120,3699844,3540580,3113544
38020,3351713,3701667,3542184,3114785
38040,3353194,3702748,3543291,3115962
38060,3352821,3703206,3543546,3115830
38080,3351433,3702067,3542090,3114485
38100,3348804,3700186,3538918,3112353
38120,3346078,3697882,3535492,3109838
38140,3343275,3695541,3531839,3107625
38160,3340353,3693014,3528563,3105214
38180,3338024,3691361,3525337,3102961
38200,3335784,3689019,3521907,3100747
38220,3333313,3686752,3518664,3098713
38240,3331063,3684994,3515903,3097003
38260,3329101,3683163,3513481,3095224
38280,3327554,3681755,3511561,3093943
38300,3326012,3680515,3509553,3092810
38320,3324643,3679616,3508343,3092030
38340,3324424,3678788,3507657,3091728
38360,3324118,3678570,3507187,3091546
38380,3323866,3678400,3506811,3091484
38400,3323776,3678073,3506981,3091771
38420,3323683,3678371,3506913,3091586
38440,3323443,3678169,3507055,3092170
38460,3323832,3678228,3506926,3091856
38480,3323394,3677984,3507251,3092058
38500,3323749,3677678,3506979,3092432
38520,3323851,3677831,3507621,3092861
38540,3324010,3678018,3507937,3093169
38560,3324433,3678293,3508007,3093645
38580,3324960,3678590,3509093,3094098
38600,3325219,3678957,3509671,3094727
38620,3326048,3679489,3510561,3095570
38640,3326872,3679733,3511216,3096520
38660,3327544,3680424,3512527,3097301
38680,3328636,3681155,3514096,3098304
38700,3329626,3682018,3515226,3099436
38720,3330574,3682604,3516565,3100643
38740,3331690,3683579,3517671,3101471
38760,3332789,3684423,3519190,3102536
38780,3334021,3685484,3520558,3104058
38800,3335155,3686524,3522313,3105264
38820,3336420,3687378,3523768,3106586
38840,3337967,3688518,3525624,3107659
38860,3339425,3689544,3527510,3109300
38880,3340558,3690915,3528794,3110388
38900,3342190,3692128,3530792,3111745
38920,3343437,3693131,3532406,3113482
38940,3345107,3694197,3533954,3114621
38960,3345910,3695233,3535209,3115250
38980,3345116,3694718,3534900,3114878
39000,3343052,3692793,3533076,3113208
39020,3340530,3690712,3530069,3111112
39040,3337831,3688475,3527230,3109187
39060,3335177,3685987,3523926,3107024
39080,3332737,3683968,3521208,3105099
39100,3329971,3681410,3518282,3103008
39120,3327839,3679312,3515842,3101234
39140,3326424,3677821,3513677,3099990
39160,3324634,3675902,3511583,3098382
39180,3323158,3674452,3509816,3097408
39200,3321760,3672971,3508677,3096395
39220,3320549,3672025,3507548,3095861
39240,3320280,3671245,3506972,3095309
39260,3320068,3671103,3506650,3095415
39280,3320211,3670553,3506906,3095384
39300,3320117,3670513,3507079,3095538
39320,3320268,3670264,3507076,3095475
39340,3320667,3669702,3507261,3095420
39360,3320493,3669761,3507334,3095776
39380,3320895,3669543,3507578,3096116
39400,3320935,3669807,3507663,3096146
39420,3321105,3669705,3507738,3096440
39440,3321450,3669650,3508294,3096663
39460,3322072,3669966,3508672,3097215
39480,3322960,3670436,3509233,3097437
39500,3323171,3671052,3510052,3098261
39520,3324031,3671519,3510837,3099055
39540,3325040,3672336,3511730,3099825
39560,3326167,3673368,3512551,3100534
39580,3326998,3673953,3513993,3101574
39600,3328292,3675296,3514784,3102634
39620,3329418,3676418,3516172,3103633
39640,3330814,3677642,3517298,3104727
39660,3331945,3679176,3518911,3105981
39680,3333474,3680500,3520430,3107286
39700,3334667,3681828,3521837,3108291
39720,3336218,3683709,3523622,3109621
39740,3337897,3685166,3524999,3111219
39760,3339465,3686673,3526928,3112390
39780,3340988,3688445,3528571,3113828
39800,3342442,3690029,3530624,3115103
39820,3343890,3691890,3532134,3116197
39840,3343974,3692283,3532103,3116241
39860,3342533,3691431,3530677,3115252
39880,3340296,3689916,3528180,3113316
39900,3337838,3688371,3525343,3111400
39920,3335483,3686084,3522396,3109585
39940,3333216,3684688,3519542,3107772
39960,3331057,3683139,3516777,3105945
39980,3328800,3681601,3514226,3104825
40000,3327329,3679975,3512016,3103447
40020,3325640,3679093,3510239,3102404
40040,3324416,3677863,3508575,3101350
40060,3323430,3677162,3507111,3100606
40080,3322578,3676675,3506143,3100131
40100,3322248,3676537,3505577,3100273
40120,3322453,3676788,3505566,3100412
40140,3322669,3677024,3506063,3100919
40160,3322914,3677342,3506264,3101174
40180,3323234,3677855,3506581,3101525
40200,3323810,3678296,3507151,3101846
40220,3323787,3678630,3507344,3102517
40240,3324301,3679205,3507769,3103225
40260,3324834,3679367,3508456,3103491
40280,3325237,3680092,3508812,3104106
40300,3325810,3680789,3509631,3104940
40320,3326530,3681186,3510375,3105730
40340,3327463,3682030,3511422,3106601
40360,3328420,3682871,3512200,3107485
40380,3329248,3684264,3513407,3108897
40400,3330576,3684939,3514497,3109731
40420,3331603,3686314,3516188,3110804
40440,3332969,3687596,3517363,3112031
40460,3334569,3688766,3519329,3113550
40480,3335572,3690016,3520692,3114865
40500,3337010,3691382,3522560,3116228
40520,3338516,3692772,3524175,3117443
40540,3340020,3694470,3526032,3119094
40560,3341527,3695830,3527700,3120843
40580,3342991,3697285,3529353,3121967
40600,3344502,3699071,3531397,3123699
40620,3345955,3700609,3533242,3125342
40640,3347840,3702167,3535152,3126957
40660,3349632,3704005,3537428,3128593
40680,3351322,3705820,3539474,3130361
40700,3352922,3707452,3541174,3131821
40720,3354578,3708832,3543214,3133350
40740,3355150,3709606,3544220,3134047
40760,3353986,3709191,3543554,3133557
40780,3351837,3707530,3541846,3131879
40800,3349419,3705677,3539491,3130452
40820,3347108,3703592,3536965,3128565
40840,3343924,3701200,3534781,3127124
40860,3342094,3699891,3532254,3126030
40880,3339563,3697479,3530169,3124296
40900,3337189,3695488,3527729,3122849
40920,3335349,3694168,3526117,3121744
40940,3333607,3692734,3524391,3120686
40960,3332041,3691658,3523154,3120088
40980,3330801,3690158,3522155,3119485
41000,3329790,3689686,3521202,3118920
41020,3329463,3689323,3521218,3119024
41040,3329351,3689297,3521509,3119130
41060,3329018,3689249,3522099,3119547
41080,3329305,3689121,3522644,3119624
41100,3329297,3689302,3523146,3120407
41120,3329541,3689337,3523855,3120724
41140,3329707,3689690,3524406,3121361
41160,3329924,3689631,3524678,3121326
41180,3329741,3690129,3525252,3122074
41200,3329809,3690224,3525838,3122356
41220,3330338,3690430,3526544,3122753
41240,3330621,3690830,3527665,3123597
41260,3331113,3691129,3528454,3124075
41280,3331603,3692007,3529302,3124812
41300,3332251,3692511,3530588,3125926
41320,3333115,3693244,3532024,3126651
41340,3333872,3693868,3533295,3127839
41360,3334775,3694504,3534821,3128846
41380,3335738,3695169,3536336,3129901
41400,3336949,3696344,3538238,3131094
41420,3338046,3697243,3539647,3132137
41440,3339240,3698416,3541287,3133321
41460,3340451,3699453,3542994,3134611
41480,3341996,3700330,3545042,3135582
41500,3342918,3701293,3546784,3137121
41520,3344741,3702656,3548933,3138453
41540,3346144,3703902,3550712,3139983
41560,3347635,3704842,3552909,3141468
41580,3348998,3706217,3554630,3142790
41600,3350743,3707447,3556693,3144156
41620,3351943,3708553,3558769,3145778
41640,3352757,3709221,3559995,3146169
41660,3352015,3708677,3559879,3145514
41680,3350188,3707175,3558351,3144159
41700,3348135,3705377,3556160,3142710
41720,3345736,3703208,3554245,3140965
41740,3343290,3700991,3552171,3139547
41760,3341174,3698758,3550076,3137941
41780,3339318,3696707,3548342,3136736
41800,3337600,3695050,3546927,3135601
41820,3336029,3693278,3545633,3134600
41840,3334614,3692117,3544345,3133867
41860,3333768,3690919,3543497,3133006
41880,3333169,3689636,3543168,3132671
41900,3332659,3689338,3542894,3132173
41920,3332329,3688704,3543004,3132558
41940,3333097,3688936,3543346,3133076
41960,3333369,3688775,3543885,3132933
41980,3333337,3688569,3544192,3133404
42000,3333887,3688791,3544874,3133350
42020,3333908,3688952,3545127,3133780
42040,3334442,3689141,3545422,3134043
42060,3334737,3689272,3545505,3134353
42080,3334938,3689487,3545892,3134890
42100,3335393,3689593,3546570,3134745
42120,3335704,3690156,3547160,3135321
42140,3336528,3690519,3547687,3135827
42160,3337202,3691061,3548391,3136536
42180,3338307,3692087,3549577,3137185
42200,3339384,3692876,3550803,3137911
42220,3340060,3693883,3551602,3138791
42240,3341452,3695084,3552828,3139685
42260,3342342,3696312,3554071,3140607
42280,3343613,3697315,3555163,3141494
42300,3344996,3698418,3556770,3142858
42320,3346229,3699754,3557824,3143674
42340,3347415,3701459,3559256,3145026
42360,3348917,3702523,3560781,3145941
42380,3350332,3704166,3562082,3147089
42400,3351601,3705665,3563651,3148327
42420,3353018,3707551,3565249,3149671
42440,3354841,3709458,3566902,3150886
42460,3356424,3710856,3568946,3152102
42480,3358040,3712857,3570336,3153495
42500,3358709,3713624,3571500,3153921
42520,3358146,3713310,3570801,3153145
42540,3356216,3712210,3568944,3151630
42560,3354013,3711147,3566532,3150015
42580,3351850,3708969,3564415,3148506
42600,3349552,3707443,3562131,3146681
42620,3346548,3705322,3559409,3144630
42640,3344317,3703699,3557277,3143300
42660,3342512,3702382,3555125,3141673
42680,3340462,3700955,3553382,3140722
42700,3339061,3699593,3551657,3139906
42720,3337559,3698615,3550239,3138655
42740,3336633,3697917,3549328,3138019
42760,3335837,3697490,3548602,3137456
42780,3335768,3697443,3548879,3137711
42800,3335532,3697857,3548705,3137644
42820,3336120,3698097,3549202,3138270
42840,3335918,3698456,3549498,3138411
42860,3335886,3698598,3549821,3138647
42880,3336344,3699060,3550278,3139146
42900,3336216,3699208,3550544,3139196
42920,3336662,3699710,3551169,3139713
42940,3337006,3699884,3551370,3140215
42960,3337410,3700356,3551766,3140561
42980,3337961,3701115,3552841,3141154
43000,3338713,3701537,3553374,3141670
43020,3339291,3702026,3554009,3142310
43040,3340209,3702910,3555144,3143406
43060,3341087,3703800,3556164,3143893
43080,3342017,3704935,3557242,3144941
43100,3342927,3705864,3558187,3145744
43120,3343876,3706986,3559727,3146970
43140,3344971,3707891,3560833,3147650
43160,3346375,3709417,3562567,3149212
43180,3347428,3710834,3563797,3149939
43200,3348590,3711856,3565348,3151131
43220,3350022,3713334,3566564,3152297
43240,3351352,3714904,3568238,3153747
43260,3352713,3716347,3570079,3154974
43280,3354198,3717974,3571877,3156084
43300,3355926,3719611,3573510,3157531
43320,3357287,3721088,3575329,3159098
43340,3358671,3722973,3577067,3160283
43360,3360127,3724477,3578884,3161862
43380,3361621,3726304,3580705,3163241
43400,3363223,3727679,3582373,3164244
43420,3363224,3728249,3583048,3164663
43440,3362035,3727619,3581631,3163568
43460,3359757,3725977,3579908,3161832
43480,3357289,3723935,3577448,3159907
43500,3354561,3721681,3574894,3157884
43520,3351474,3719319,3572444,3156160
43540,3349151,3717533,3569533,3154471
43560,3346399,3715510,3566963,3152703
43580,3344346,3713833,3565112,3151020
43600,3342255,3712058,3563241,3149684
43620,3340279,3710743,3561432,3148604
43640,3338798,3709521,3560138,3147312
43660,3337188,3708737,3559007,3146575
43680,3336354,3707945,3558021,3146014
43700,3335721,3707443,3557701,3145833
43720,3335640,3707362,3557656,3145748
43740,3335377,3707585,3557904,3145671
43760,3335293,3707439,3558030,3145896
43780,3335523,3707675,3558706,3146009
43800,3335281,3707457,3558555,3146175
43820,3335143,3707792,3559100,3146438
43840,3335476,3707966,3559553,3146532
43860,3335478,3707957,3559856,3146827
43880,3335407,3708108,3560323,3146957
43900,3335847,3708212,3561120,3147520
43920,3336193,3708305,3561662,3147646
43940,3336308,3708864,3562633,3148270
43960,3336975,3709128,3563625,3148936
43980,3337376,3709617,3564317,3149356
44000,3338479,3710248,3565646,3150404
44020,3339106,3710803,3566781,3151137
44040,3340164,3711537,3567924,3152130
44060,3341103,3712511,3569424,3152856
44080,3341964,3713363,3571012,3154012
44100,3343056,3714002,3572401,3154872
44120,3344359,3715068,3573779,3155757
44140,3345647,3716134,3575089,3157012
44160,3347062,3717203,3576934,3158226
44180,3348104,3718580,3578657,3159131
44200,3349393,3719285,3580098,3160294
44220,3350836,3720282,3581820,3161439
44240,3351954,3721491,3583726,3162353
44260,3352940,3722726,3584885,3164051
44280,3354695,3723816,3586670,3164797
44300,3356267,3725074,3588644,3166344
44320,3357018,3725962,3590113,3167081
44340,3358063,3726466,3590899,3167436
44360,3356359,3725405,3589969,3166788
44380,3354633,3724120,3588513,3165371
44400,3352325,3722035,3586090,3163451
44420,3349975,3719759,3583659,3161243
44440,3347162,3717498,3581248,3159662
44460,3344567,3715652,3578921,3157723
44480,3342338,3713644,3576849,3156163
44500,3340160,3711699,3575037,3154713
44520,3338355,3709742,3573289,3153245
44540,3336964,3708531,3571904,3152297
44560,3335615,3707513,3570872,3151438
44580,3334712,3706446,3569910,3150714
44600,3333808,3705858,3569604,3150246
44620,3333445,3705618,3569346,3150459
44640,3333441,3705664,3569907,3150493
44660,3333639,3705643,3570181,3150533
44680,3333940,3705652,3570215,3150791
44700,3333794,3705564,3570678,3150508
44720,3333838,3705378,3571216,3150842
44740,3333848,3705199,3571375,3150820
44760,3333912,3705226,3571797,3150876
44780,3334150,3705210,3572410,3150988
44800,3334302,3705327,3572937,3151596
44820,3334367,3705675,3573279,3151700
44840,3335032,3705992,3574122,3152131
44860,3335606,3706420,3575147,3152909
44880,3336594,3707029,3575997,3153466
44900,3337499,3707613,3577081,3154182
44920,3338253,3708492,3578243,3155043
44940,3339665,3709386,3579392,3155521
44960,3340774,3710167,3580230,3156641
44980,3341855,3711327,3581704,3157572
45000,3343203,3712415,3582982,3158173
45020,3344416,3713852,3584507,3159200
45040,3345932,3715025,3586018,3160387
45060,3347377,3716213,3587077,3161471
45080,3348926,3717738,3588736,3162555
45100,3350290,3719517,3590396,3163568
45120,3351745,3721049,3592030,3164966
45140,3353369,3722790,3593590,3166158
45160,3354914,3724326,3595148,3167342
45180,3356548,3726016,3596975,3168883
45200,3357347,3727376,3597986,3169448
45220,3356848,3727654,3598027,3168921
45240,3355709,3726842,3596441,3167855
45260,3353669,3725533,3594654,3166320
45280,3351227,3724071,3592236,3164903
45300,3348974,3722855,3589890,3162838
45320,3346552,3721453,3587348,3161592
45340,3344540,3720512,3585047,3159979
45360,3342744,3719617,3583253,3159034
45380,3341282,3719005,3582265,3158311
45400,3340266,3718466,3580682,3157580
45420,3339061,3717768,3579584,3157121
45440,3338484,3717992,3578921,3156783
45460,3338233,3717913,3578954,3156930
45480,3338377,3718087,3578627,3157219
45500,3338776,3719086,3579287,3157809
45520,3339076,3719853,3579743,3158150
45540,3339673,3720777,3580160,3159002
45560,3340079,3721523,3580672,3159218
45580,3340642,3722356,3581124,3160056
45600,3340946,3723212,3582019,3160623
45620,3341301,3723776,3582586,3161412
45640,3341971,3724566,3583175,3161906
45660,3342517,3725493,3583787,3162476
45680,3343158,3726746,3584586,3163329
45700,3343893,3727722,3585460,3164293
45720,3344756,3728724,3586620,3165183
45740,3345762,3730002,3587727,3165999
45760,3346956,3731543,3589015,3167034
45780,3347990,3733178,3590230,3168367
45800,3349193,3734405,3591777,3169568
45820,3350685,3735775,3593001,3170962
45840,3351907,3737359,3594728,3172238
45860,3353248,3739014,3596006,3173537
45880,3354508,3740425,3597604,3175045
45900,3356159,3742420,3599694,3176433
45920,3357608,3744310,3601426,3178007
45940,3359132,3745653,3602935,3179476
45960,3360717,3747601,3604663,3180946
45980,3362577,3749898,3606779,3182411
46000,3363894,3751630,3608474,3183892
46020,3365688,3753559,3610130,3185266
46040,3367332,3755415,3612327,3187073
46060,3369126,3757095,3614160,3188527
46080,3370509,3759161,3616199,3190054
46100,3371608,3760517,3617404,3191129
46120,3371423,3760767,3617292,3190893
46140,3369863,3760258,3616157,3190084
46160,3368282,3759414,3614625,3189140
46180,3366219,3758666,3612521,3187694
46200,3363835,3757299,3610132,3186525
46220,3361505,3756006,3608031,3185262
46240,3359280,3754882,3605891,3184140
46260,3357383,3753946,3604332,3183348
46280,3355657,3753198,3602808,3182551
46300,3354191,3752841,3601762,3181990
46320,3353016,3752181,3600649,3181546
46340,3352220,3751887,3599820,3181265
46360,3351482,3751904,3599490,3181182
46380,3351314,3752040,3599599,3181537
46400,3351189,3752331,3599848,3181890
46420,3351538,3753352,3600148,3182483
46440,3351989,3753898,3601170,3183386
46460,3352519,3754613,3601654,3184011
46480,3352872,3755128,3602466,3184674
46500,3353390,3755974,3602963,3185494
46520,3353577,3756535,3603867,3186046
46540,3354196,3757089,3604799,3186986
46560,3354793,3758039,3605476,3187691
46580,3355324,3758876,3606231,3188437
46600,3355618,3759235,3606956,3189138
46620,3356667,3760521,3608560,3190413
46640,3357568,3761077,3609387,3191106
46660,3358344,3762476,3610622,3192313
46680,3359353,3763520,3611795,3193405
46700,3360488,3764824,3613782,3194757
46720,3361833,3765859,3615405,3196217
46740,3362940,3767236,3616952,3197571
46760,3364179,3768277,3618574,3198546
46780,3365843,3769591,3620209,3199770
46800,3367326,3770808,3622190,3201347
46820,3368796,3772315,3623786,3202838
46840,3370026,3773403,3625615,3203862
46860,3371455,3774937,3627502,3205630
46880,3373276,3776444,3629595,3206818
46900,3374517,3777613,3631162,3208352
46920,3376213,3778873,3633391,3209864
46940,3377362,3780804,3634904,3211281
46960,3378776,3782487,3636842,3213031
46980,3380446,3784291,3638827,3214502
47000,3381650,3785928,3640376,3215824
47020,3381889,3787124,3641300,3216460
47040,3381496,3787266,3641289,3216398
47060,3379542,3786780,3640202,3215425
47080,3377387,3785703,3638552,3214128
47100,3375004,3784273,3636871,3213000
47120,3372534,3782640,3635071,3211863
47140,3370212,3781385,3633415,3210937
47160,3368357,3780292,3631406,3210061
47180,3366350,3779368,3630188,3209286
47200,3365002,3778263,3629330,3208905
47220,3363930,3777481,3628153,3208488
47240,3362849,3776826,3627501,3208295
47260,3362143,3776272,3626919,3208340
47280,3361442,3775908,3626837,3208378
47300,3361544,3775848,3627137,3208761
47320,3362188,3775961,3627560,3209368
47340,3362430,3776180,3628198,3210061
47360,3362851,3776403,3628933,3210550
47380,3363314,3776523,3629606,3211474
47400,3363992,3777126,3630796,3211923
47420,3364296,3776851,3631117,3212378
47440,3364670,3777073,3631852,3212983
47460,3364917,3777264,3632424,3213548
47480,3365439,3777645,3633403,3214347
47500,3365968,3777585,3634016,3214808
47520,3366680,3778218,3635033,3215818
47540,3367677,3778675,3635832,3216602
47560,3368713,3778993,3636960,3217405
47580,3369648,3779884,3638370,3218476
47600,3370669,3780409,3639450,3219403
47620,3371928,3781055,3641137,3220412
47640,3373008,3781656,3642501,3221672
47660,3374624,3782814,3643865,3222975
47680,3375632,3783607,3645540,3224016
47700,3377162,3784568,3647061,3225060
47720,3378735,3785705,3648953,3226228
47740,3380099,3786807,3650461,3227673
47760,3381838,3787542,3652082,3228901
47780,3383436,3789108,3653544,3230259
47800,3385214,3790246,3655225,3231164
47820,3386517,3790987,3657033,3232458
47840,3389127,3792962,3658657,3234203
47860,3390017,3793756,3660302,3235124
47880,3392295,3795278,3661944,3236378
47900,3393257,3796397,3663343,3237546
47920,3393366,3796750,3663802,3237723
47940,3392573,3796272,3662843,3236758
47960,3391060,3795295,3661429,3235790
47980,3389254,3794054,3658963,3234516
48000,3387471,3792511,3657229,3233417
48020,3385456,3791144,3655132,3232187
48040,3383828,3790239,3653245,3231094
48060,3382737,3789706,3651571,3230449
48080,3381600,3788815,3650064,3229854
48100,3380560,3788069,3649082,3229531
48120,3380136,3787545,3647930,3229297
48140,3379800,3787702,3647197,3229199
48160,3379851,3787713,3646817,3229356
48180,3380037,3788238,3646683,3229862
48200,3380410,3788408,3646925,3230281
48220,3380958,3789007,3647265,3230858
48240,3381491,3789436,3647692,3231090
48260,3381976,3790076,3648511,3231781
48280,3382713,3790535,3648478,3232172
48300,3383253,3790995,3648842,3232471
48320,3383733,3791512,3649203,3232962
48340,3384462,3792063,3649934,3233447
48360,3384951,3792574,3650013,3233988
48380,3385412,3793292,3650378,3234420
48400,3386456,3794092,3651339,3235070
48420,3387020,3794708,3651927,3235695
48440,3388185,3795411,3652552,3236273
48460,3388980,3796408,3653336,3237203
48480,3390361,3797609,3654615,3238335
48500,3391417,3798599,3655533,3239050
48520,3392552,3799647,3656753,3240092
48540,3393348,3800853,3657814,3240946
48560,3394787,3801895,3659084,3241974
48580,3396224,3803140,3660321,3242911
48600,3397291,3804490,3661536,3243959
48620,3398874,3805496,3662676,3244918
48640,3400106,3806738,3664082,3246262
48660,3401530,3808015,3665963,3247347
48680,3403060,3809522,3667019,3248850
48700,3404709,3810835,3668530,3249697
48720,3406016,3812124,3669854,3250825
48740,3407635,3813463,3671195,3252234
48760,3409224,3814460,3672522,3253256
48780,3410606,3815973,3674108,3254467
48800,3411592,3817031,3674964,3255149
48820,3411112,3816662,3674807,3255081
48840,3409746,3816177,3673241,3253688
48860,3407559,3814566,3671025,3252463
48880,3405402,3812998,3668649,3250914
48900,3402665,3811227,3665389,3249091
48920,3400385,3809689,3662624,3247693
48940,3398171,3807921,3659671,3246554
48960,3396696,3806317,3657278,3245172
48980,3394930,3805057,3654915,3244099
49000,3393325,3803844,3652658,3243063
49020,3392142,3802679,3650546,3241924
49040,3390997,3801481,3648893,3240969
49060,3390212,3801089,3647199,3240553
49080,3389607,3800199,3645796,3240355
49100,3389428,3800329,3645148,3239990
49120,3389607,3800204,3644815,3240013
49140,3389709,3800180,3644583,3240007
49160,3390131,3800089,3644100,3239917
49180,3390113,3799938,3643869,3239960
49200,3390172,3799829,3643946,3239795
49220,3390537,3799785,3643561,3239954
49240,3390654,3799980,3643423,3239981
49260,3390733,3799910,3643166,3239928
49280,3391169,3799879,3643270,3239979
49300,3391613,3800076,3643276,3239954
49320,3391951,3800488,3643368,3240268
49340,3392335,3800624,3643867,3240925
49360,3392996,3801015,3644464,3241241
49380,3393730,3801145,3644830,3241528
49400,3394607,3801890,3645846,3242485
49420,3395753,3802599,3646165,3242703
49440,3396600,3802758,3647251,3243398
49460,3397563,3803427,3647956,3243868
49480,3398280,3804018,3648693,3244705
49500,3399547,3804859,3650064,3245317
49520,3400425,3805474,3650816,3246235
49540,3401719,3805987,3651951,3246805
49560,3403045,3806716,3652935,3247610
49580,3404323,3807792,3654261,3248466
49600,3405465,3808676,3655578,3249336
49620,3406290,3809334,3656755,3250245
49640,3408419,3810824,3658439,3251484
49660,3409433,3811446,3659507,3252183
49680,3410379,3812307,3660886,3253226
49700,3412306,3813198,3662144,3254310
49720,3413166,3814014,3663281,3254946
49740,3413615,3814438,3663951,3255105
49760,3412147,3813278,3662484,3253587
49780,3410110,3811759,3660213,3251662
49800,3407877,3809524,3657355,3249684
49820,3405574,3806772,3654215,3247570
49840,3403310,3804744,3650748,3245211
49860,3400984,3802605,3647775,3243464
49880,3399201,3800503,3644664,3241507
49900,3397674,3798512,3641839,3239841
49920,3396039,3796682,3639294,3238322
49940,3394798,3794857,3637225,3237025
49960,3393387,3793359,3635106,3235877
49980,3392702,3791922,3633461,3234722
50000,3391903,3791049,3632016,3233997
50020,3392006,3790241,3631211,3233277
50040,3391966,3789937,3630411,3233315
50060,3392140,3789217,3630133,3233037
50080,3392070,3788918,3629553,3232663
50100,3392286,3788582,3629124,3232272
50120,3392002,3788219,3629069,3231902
50140,3392104,3787625,3628501,3231657
50160,3392199,3787194,3628202,3231060
50180,3392148,3786658,3627420,3230540
50200,3392191,3786424,3627309,3230284
50220,3392228,3786084,3627192,3230102
50240,3392854,3785956,3627151,3230238
50260,3393028,3785930,3627224,3230193
50280,3393635,3786180,3627430,3230272
50300,3394193,3786329,3627878,3230544
50320,3395217,3786595,3628289,3231281
50340,3396029,3786616,3628765,3231386
50360,3396969,3787445,3629307,3231810
50380,3398124,3787802,3630161,3232370
50400,3399025,3788159,3630634,3232901
50420,3400434,3788780,3631944,3233357
50440,3401581,3789528,3632331,3233906
50460,3402869,3790369,3633450,3234675
50480,3404382,3791053,3634377,3235457
50500,3405644,3791836,3635425,3236177
50520,3406968,3792666,3636072,3236568
50540,3408164,3793461,3637039,3237520
50560,3409628,3794774,3638202,3238353
50580,3411165,3795604,3639296,3239205
50600,3412357,3796614,3640042,3239943
50620,3413007,3797026,3640470,3240068
50640,3412295,3796452,3639373,3238997
50660,3410425,3794485,3636493,3237091
50680,3407880,3792460,3632962,3234473
50700,3405402,3789927,3629422,3231751
50720,3402867,3787169,3625084,3229232
50740,3400574,3784749,3621089,3226623
50760,3398232,3782366,3617243,3224167
50780,3396602,3780335,3614069,3222110
50800,3395060,3778303,3611129,3220344
50820,3393531,3776888,3608577,3218525
50840,3392431,3774950,3606164,3216878
50860,3391292,3773775,3604104,3215606
50880,3390761,3772795,3601996,3214695
50900,3390533,3772230,3600984,3213829
50920,3390423,3771769,3600262,3213228
50940,3390395,3771369,3599625,3212951
50960,3390681,3771089,3598815,3212263
50980,3390318,3770897,3598093,3211774
51000,3390661,3770724,3597534,3211264
51020,3390151,3770424,3596786,3210892
51040,3389955,3770353,3595978,3210457
51060,3390157,3770094,3595426,3209842
51080,3390133,3769565,3594918,3209619
51100,3390340,3769565,3594514,3209470
51120,3390809,3770024,3594563,3209407
51140,3391017,3769999,3594639,3209313
51160,3391570,3770494,3594805,3209341
51180,3392161,3770736,3594792,3209562
51200,3392890,3770940,3594895,3209778
51220,3393605,3771988,3595895,3210520
51240,3394150,3772955,3595997,3210803
51260,3395180,3773985,3596738,3211517
51280,3395801,3774750,3597358,3211931
51300,3396549,3775703,3598245,3212743
51320,3397470,3776690,3598966,3213459
51340,3398364,3777553,3599629,3213926
51360,3399065,3778781,3600469,3214868
51380,3400689,3780492,3601972,3215754
51400,3401109,3781315,3602751,3216349
51420,3402204,3782680,3604076,3217535
51440,3403239,3783658,3605122,3218559
51460,3404305,3785063,3606121,3219375
51480,3405327,3786397,3607869,3220654
51500,3406421,3787306,3608673,3221602
51520,3407342,3789045,3609997,3222367
51540,3407293,3789623,3609954,3222531
51560,3406001,3788515,3608518,3221636
51580,3403066,3786597,3605659,3219364
51600,3400062,3784293,3601448,3216832
51620,3396813,3781616,3597083,3213959
51640,3393678,3778733,3592653,3211109
51660,3390752,3776404,3588088,3208763
51680,3388376,3773626,3584055,3206268
51700,3385866,3771516,3580189,3203602
51720,3383648,3769149,3576592,3201391
51740,3381387,3766732,3573598,3199204
51760,3379300,3764837,3570712,3197577
51780,3377762,3762969,3567928,3195850
51800,3376334,3761454,3565448,3194297
51820,3375347,3761019,3563718,3193505
51840,3375125,3759832,3562592,3192847
51860,3374366,3759443,3561611,3192094
51880,3374018,3759042,3561043,3191761
51900,3373680,3758747,3560198,3191140
51920,3373240,3758054,3559615,3190736
51940,3372651,3757901,3559581,3190237
51960,3371986,3757160,3558772,3189865
51980,3371859,3756769,3558533,3189614
52000,3371748,3756541,3558020,3189416
52020,3371242,3756395,3558068,3189000
52040,3371268,3756434,3557987,3188917
52060,3371449,3756252,3558208,3189083
52080,3371476,3756473,3558350,3189258
52100,3371666,3756320,3558729,3189489
52120,3372086,3756607,3559065,3189565
52140,3372366,3757031,3559817,3189996
52160,3373087,3757549,3560565,3190673
52180,3373312,3758084,3561271,3191208
52200,3373899,3758808,3562556,3191725
52220,3374498,3759488,3563487,3192838
52240,3375382,3760179,3564326,3193267
52260,3375977,3760985,3565546,3194092
52280,3376765,3761663,3566691,3195201
52300,3377554,3762644,3567561,3195800
52320,3378599,3763745,3569188,3196991
52340,3379402,3764682,3570585,3197772
52360,3380633,3765908,3571921,3198648
52380,3381563,3766724,3573207,3199885
52400,3382517,3767980,3574694,3200907
52420,3383512,3769075,3576129,3201884
52440,3384755,3770094,3577809,3203136
52460,3385323,3770891,3578983,3203837
52480,3385282,3771159,3578889,3203786
52500,3383718,3770088,3577656,3202641
52520,3381366,3767893,3574832,3200265
52540,3378351,3765343,3571154,3197717
52560,3375138,3762561,3567006,3195135
52580,3372219,3759894,3562901,3192283
52600,3369153,3757078,3559192,3189576
52620,3366887,3754801,3555324,3187154
52640,3364793,3752221,3552144,3184806
52660,3362534,3750066,3549317,3182915
52680,3360978,3748379,3546784,3181193
52700,3359106,3746494,3544254,3179402
52720,3358013,3745005,3542594,3178006
52740,3357194,3743663,3541136,3176988
52760,3356535,3743236,3539797,3176157
52780,3356242,3742648,3539553,3175462
52800,3355849,3742321,3539392,3175545
52820,3355405,3741647,3538641,3175043
52840,3355494,3741299,3538635,3174691
52860,3354954,3740805,3538301,3174185
52880,3354973,3740257,3537904,3173637
52900,3354574,3739764,3537900,3173677
52920,3354153,3739201,3537711,3173439
52940,3354323,3739243,3537728,3173364
52960,3354600,3739146,3537985,3173456
52980,3354595,3739019,3538057,3173439
53000,3354788,3738897,3538346,3173547
53020,3355288,3739329,3538983,3173962
53040,3355485,3739702,3539366,3174586
53060,3356196,3739809,3540377,3175097
53080,3357432,3740808,3541412,3175753
53100,3357857,3741285,3542083,3176272
53120,3358578,3742263,3543210,3176860
53140,3359576,3742664,3544258,3177517
53160,3360209,3743678,3545352,3178611
53180,3361142,3744779,3546273,3179659
53200,3362419,3745744,3547777,3180549
53220,3363711,3747093,3549328,3181524
53240,3364281,3748022,3550467,3182506
53260,3365720,3749423,3552017,3183614
53280,3367009,3750663,3553519,3184693
53300,3368287,3751932,3554993,3186109
53320,3369642,3753481,3556405,3187207
53340,3370792,3754646,3557870,3188208
53360,3370970,3755053,3558227,3188382
53380,3369527,3754193,3556713,3187575
53400,3367309,3752754,3554400,3185384
53420,3364546,3750648,3550756,3183099
53440,3361646,3748379,3546563,3180785
53460,3359126,3745911,3542688,3178225
53480,3356665,3743846,3539728,3176037
53500,3354302,3741789,3536136,3174159
53520,3352298,3739826,3533429,3172372
53540,3350562,3737926,3530785,3170714
53560,3349070,3736489,3529056,3169306
53580,3347583,3735215,3526784,3168052
53600,3346979,3734651,3525598,3166960
53620,3346306,3733833,3524501,3166564
53640,3346102,3733570,3524327,3166252
53660,3346049,3733525,3524126,3166312
53680,3346216,3733578,3524013,3166131
53700,3346240,3733474,3524088,3166180
53720,3346161,3733940,3524419,3166224
53740,3346267,3733563,3524162,3165746
53760,3346376,3733778,3524472,3165970
53780,3346441,3733662,3524748,3166005
53800,3346495,3733823,3525009,3165923
53820,3346529,3733812,3525415,3166055
53840,3347068,3734541,3526076,3166603
53860,3347455,3734632,3526423,3166741
53880,3348116,3735590,3527432,3167459
53900,3348730,3736182,3528431,3167835
53920,3349646,3736914,3529225,3168704
53940,3350377,3737545,3530412,3169342
53960,3351132,3738782,3531688,3169947
53980,3352137,3739639,3532998,3171114
54000,3353216,3740836,3534529,3171797
54020,3354343,3742068,3535826,3172878
54040,3355647,3743232,3537250,3173898
54060,3356616,3744499,3538937,3174928
54080,3357990,3745680,3540495,3175897
54100,3359083,3747153,3542144,3177161
54120,3360356,3748581,3543792,3178435
54140,3361497,3749898,3545403,3180020
54160,3362976,3751371,3547205,3181064
54180,3364404,3752688,3549041,3182330
54200,3365698,3754002,3550830,3183554
54220,3367027,3755540,3552703,3184986
54240,3368603,3757291,3554700,3186300
54260,3369967,3758556,3556428,3187574
54280,3370420,3759314,3557454,3188303
54300,3369122,3758914,3556408,3187334
54320,3367143,3757263,3553828,3185655
54340,3364372,3755449,3550724,3183612
54360,3361387,3753175,3547263,3181011
54380,3358393,3750897,3544026,3178956
54400,3355455,3748419,3540420,3176919
54420,3353091,3746436,3537553,3174939
54440,3350499,3744180,3534840,3172967
54460,3348318,3742359,3532587,3171027
54480,3346293,3740187,3530399,3169431
54500,3344606,3738634,3528732,3168035
54520,3343288,3737125,3527196,3166937
54540,3342134,3736152,3525836,3165885
54560,3341144,3735257,3525384,3165115
54580,3340961,3734757,3525203,3164765
54600,3340577,3734298,3525434,3164342
54620,3340374,3734328,3525485,3164499
54640,3340355,3734031,3525821,3164355
54660,3340224,3733925,3526344,3164317
54680,3340028,3733785,3526475,3164225
54700,3340311,3733593,3526954,3164138
54720,3340043,3733177,3527483,3164197
54740,3339914,3733034,3527789,3164199
54760,3340201,3733292,3528573,3164219
54780,3340256,3733234,3529225,3164567
54800,3340551,3733440,3529839,3164814
54820,3341439,3733912,3530925,3165224
54840,3341709,3734337,3531761,3165646
54860,3342304,3734483,3532711,3166082
54880,3343048,3735308,3534383,3167168
54900,3344185,3735845,3535390,3167612
54920,3345207,3736545,3536763,3168635
54940,3345968,3737584,3538467,3169285
54960,3347306,3738582,3540091,3170547
54980,3348322,3739510,3541768,3171103
55000,3349538,3740412,3543418,3172215
55020,3350441,3741269,3544981,3173222
55040,3351803,3742472,3546833,3174146
55060,3352874,3743357,3548198,3175432
55080,3354278,3744824,3550233,3176244
55100,3355883,3746256,3552307,3177546
55120,3357287,3747270,3554169,3178721
55140,3358433,3748627,3555856,3179837
55160,3360025,3749771,3557696,3181127
55180,3361677,3751033,3559547,3182266
55200,3362569,3752079,3561422,3183356
55220,3362698,3752393,3561645,3183433
55240,3361538,3751462,3560882,3181986
55260,3359087,3749341,3558600,3180268
55280,3356784,3747270,3555909,3178176
55300,3353935,3745137,3552509,3176148
55320,3351193,3742894,3549485,3174181
55340,3349066,3740716,3547065,3172073
55360,3347115,3738676,3544849,3170577
55380,3345042,3737287,3542878,3169108
55400,3343583,3735860,3541102,3168022
55420,3342498,3734210,3540070,3166891
55440,3341369,3733487,3538732,3165746
55460,3340366,3732475,3537687,3165157
55480,3339996,3731997,3537525,3164505
55500,3340362,3731919,3537664,3164482
55520,3340130,3732006,3537729,3164627
55540,3340445,3731765,3538282,3164669
55560,3340844,3731872,3538499,3164709
55580,3340942,3731889,3538643,3164578
55600,3341161,3732173,3538886,3164776
55620,3341463,3732050,3538811,3164607
55640,3341252,3732174,3539033,3164715
55660,3341647,3732550,3539584,3164899
55680,3341833,3733209,3540152,3164985
55700,3342396,3733616,3540561,3165249
55720,3342941,3734327,3541102,3165606
55740,3343645,3734581,3541778,3166454
55760,3344438,3735820,3542530,3166940
55780,3345115,3736613,3543456,3167855
55800,3346205,3738067,3544961,3168515
55820,3347041,3738683,3545522,3169023
55840,3347940,3739949,3546844,3170167
55860,3349153,3741320,3548210,3171192
55880,3350343,3742669,3549555,3172280
55900,3351503,3743918,3551020,3173290
55920,3352851,3745374,3552556,3174552
55940,3354466,3747019,3554292,3175572
55960,3355528,3748043,3555578,3176885
55980,3356954,3749975,3557429,3178341
56000,3358375,3751530,3559513,3179410
56020,3359691,3753128,3560956,3180734
56040,3361221,3754741,3562760,3182209
56060,3362746,3756717,3564649,3183340
56080,3363675,3757519,3566163,3184278
56100,3364128,3758460,3566732,3184769
56120,3362853,3757826,3565816,3183960
56140,3360488,3756180,3563202,3182005
56160,3357961,3754104,3560463,3180113
56180,3355077,3751622,3557298,3177932
56200,3352830,3749969,3554557,3175821
56220,3350471,3747831,3551628,3174299
56240,3348280,3745980,3549121,3172530
56260,3346359,3743993,3546876,3170993
56280,3344826,3742314,3545229,3169692
56300,3343870,3740888,3543775,3168524
56320,3342432,3739568,3542371,3167608
56340,3341665,3738257,3541744,3166711
56360,3340902,3737214,3541311,3166106
56380,3341208,3736383,3541332,3165920
56400,3341807,3736037,3541774,3165940
56420,3342240,3735590,3542581,3166007
56440,3342727,3735078,3543104,3166247
56460,3343084,3734777,3543580,3165888
56480,3343972,3734462,3544483,3165987
56500,3344213,3734076,3544776,3166471
56520,3344897,3733759,3545318,3166412
56540,3345485,3733693,3546117,3166513
56560,3346645,3734169,3546802,3166767
56580,3347232,3733942,3547623,3167085
56600,3347870,3734303,3548603,3167266
56620,3348834,3734426,3549521,3168195
56640,3349988,3734938,3550756,3168760
56660,3351102,3735641,3551838,3169568
56680,3352266,3736309,3553325,3170066
56700,3353596,3737357,3554706,3170914
56720,3354975,3737896,3556051,3171727
56740,3356322,3738816,3557454,3172665
56760,3357691,3740168,3559113,3173602
56780,3359351,3741196,3560816,3174693
56800,3360613,3742176,3562488,3175893
56820,3362318,3743676,3564003,3177032
56840,3363819,3744675,3565745,3177623
56860,3365199,3746024,3567251,3179062
56880,3366623,3747473,3569242,3180042
56900,3368686,3748976,3571158,3181569
56920,3370059,3750384,3572907,3182748
56940,3371931,3751703,3574819,3183947
56960,3373595,3753394,3576473,3185139
56980,3375108,3754824,3578606,3186374
57000,3376876,3756611,3580270,3188032
57020,3378127,3757676,3582121,3188884
57040,3378716,3758220,3582943,3189138
57060,3377431,3757399,3582172,3188376
57080,3375439,3755633,3580013,3186570
57100,3372768,3753256,3577542,3184200
57120,3369901,3751008,3574547,3182257
57140,3367271,3748562,3571666,3180042
57160,3364668,3745963,3569305,3177921
57180,3362496,3744126,3567059,3175993
57200,3360352,3742053,3564804,3174250
57220,3358389,3740149,3563039,3172470
57240,3356508,3738408,3561204,3171023
57260,3355302,3736940,3559876,3169756
57280,3353741,3735412,3558748,3168428
57300,3352531,3734052,3558104,3167657
57320,3352134,3733347,3557658,3166819
57340,3352013,3733351,3557698,3166458
57360,3351577,3732823,3557630,3166437
57380,3351626,3732507,3558253,3165995
57400,3351115,3732019,3558502,3165808
57420,3351382,3731640,3558824,3165816
57440,3351405,3731424,3559131,3165455
57460,3351088,3731394,3559467,3165368
57480,3351129,3731175,3559722,3165495
57500,3350766,3730837,3560415,3165317
57520,3351241,3730754,3560752,3165354
57540,3351138,3730892,3561251,3165437
57560,3351701,3731305,3562303,3165443
57580,3351660,3731256,3563002,3165708
57600,3352419,3731730,3563925,3166331
57620,3353197,3732356,3564972,3166890
57640,3353756,3732735,3565994,3167474
57660,3354654,3733841,3567339,3168082
57680,3355332,3734652,3568833,3168702
57700,3356467,3735423,3570038,3169200
57720,3357273,3736443,3571377,3170260
57740,3358114,3737620,3572933,3170887
57760,3359162,3738296,3574445,3171983
57780,3360080,3739618,3575742,3172784
57800,3361061,3740784,3577382,3173545
57820,3362221,3741993,3579027,3174671
57840,3363389,3743507,3580446,3175908
57860,3364423,3744949,3582170,3176871
57880,3365645,3746137,3583974,3177991
57900,3366854,3747522,3585506,3179053
57920,3368125,3748847,3587423,3180105
57940,3369328,3750249,3588947,3181157
57960,3369689,3751192,3590134,3181888
57980,3369073,3750631,3589763,3181284
58000,3366937,3748867,3587814,3179852
58020,3364580,3746745,3585631,3177419
58040,3361695,3744195,3582846,3175263
58060,3358939,3741982,3580185,3172803
58080,3356703,3739495,3577485,3170921
58100,3354164,3737423,3575255,3168769
58120,3352253,3735325,3573062,3167104
58140,3350836,3733767,3571551,3166014
58160,3349192,3732189,3570211,3164461
58180,3348031,3730648,3568527,3163158
58200,3347039,3729605,3567525,3162015
58220,3346635,3728848,3566679,3161679
58240,3346023,3728474,3566547,3160965
58260,3345838,3728268,3566152,3160795
58280,3346091,3728113,3566389,3160937
58300,3346068,3728398,3566613,3160651
58320,3346188,3728044,3566808,3160543
58340,3346299,3727968,3566841,3160459
58360,3346148,3727560,3566787,3160304
58380,3346272,3727745,3566663,3160428
58400,3346201,3727509,3567002,3160347
58420,3346595,3727864,3567372,3160311
58440,3346777,3728268,3567851,3160652
58460,3347687,3728809,3568438,3160986
58480,3348029,3729133,3568783,3161532
58500,3348545,3729692,3569393,3161985
58520,3349699,3730699,3570612,3162756
58540,3350372,3731253,3571431,3163307
58560,3351225,3732169,3572639,3164242
58580,3352179,3733261,3573543,3164981
58600,3353446,3734370,3574958,3165870
58620,3354402,3735325,3576088,3166715
58640,3355596,3736304,3577344,3167725
58660,3356592,3737465,3578868,3168879
58680,3358029,3738831,3580043,3169860
58700,3359155,3739828,3581524,3170912
58720,3360409,3741447,3582776,3171960
58740,3361818,3742565,3584454,3173200
58760,3363265,3744208,3586326,3174208
58780,3364795,3745771,3588115,3175968
58800,3366234,3747191,3589729,3176786
58820,3367821,3748585,3591199,3178554
58840,3368667,3749775,3592366,3179338
58860,3368251,3749560,3592368,3179098
58880,3366584,3748086,3591108,3177389
58900,3364183,3746022,3588647,3175267
58920,3361673,3743319,3585584,3173033
58940,3359054,3740801,3582764,3170336
58960,3356161,3738083,3579600,3168072
58980,3353967,3735660,3577191,3166004
59000,3351773,3733476,3575008,3163864
59020,3349581,3731267,3572845,3162127
59040,3347895,3729502,3570476,3160096
59060,3346103,3727344,3568557,3158638
59080,3344499,3725713,3567135,3157174
59100,3343911,3724696,3565748,3156060
59120,3342993,3723678,3565047,3155295
59140,3342673,3723196,3564725,3155074
59160,3342387,3722541,3564758,3154581
59180,3342261,3722486,3564624,3154476
59200,3342419,3722122,3564639,3154307
59220,3342451,3722171,3565040,3154272
59240,3342283,3721740,3564898,3154197
59260,3342489,3721487,3565312,3154091
59280,3342370,3721400,3565416,3153776
59300,3342397,3721252,3565625,3153585
59320,3342602,3721442,3566026,3153868
59340,3342988,3721321,3566459,3153962
59360,3343298,3721535,3567038,3154297
59380,3343942,3722108,3567731,3154796
59400,3344705,3722347,3568385,3154928
59420,3345428,3723128,3569570,3155628
59440,3346492,3723514,3570535,3156377
59460,3347336,3724247,3571503,3157098
59480,3348278,3725185,3572596,3157928
59500,3349157,3726245,3573787,3158951
59520,3350113,3727107,3575204,3159845
59540,3351359,3728038,3576632,3160715
59560,3352587,3729318,3577746,3161881
59580,3353528,3730456,3579271,3162624
59600,3354651,3731298,3580802,3163732
59620,3355953,3732641,3582153,3165050
59640,3357315,3733914,3583898,3166108
59660,3358982,3735599,3585313,3167417
59680,3360001,3736887,3586872,3168641
59700,3361379,3738304,3588541,3169844
59720,3363027,3739943,3590341,3171238
59740,3364417,3741381,3591745,3172391
59760,3365532,3742436,3593284,3173584
59780,3365779,3742798,3594013,3173620
59800,3363875,3741942,3592621,3172459
59820,3361992,3739687,3589930,3170131
59840,3358913,3737106,3587238,3167824
59860,3356101,3733844,3583985,3164935
59880,3353194,3731238,3581135,3162221
59900,3350255,3728027,3578126,3160043
59920,3347712,3725169,3575378,3157886
59940,3345288,3722770,3572873,3155382
59960,3343118,3720193,3570763,3153311
59980,3341187,3718310,3568655,3151577
60000,3339561,3715890,3566649,3150051
60020,3338086,3713771,3565317,3148496
60040,3337062,3712424,3564424,3147198
60060,3337004,3712005,3564120,3146653
60080,3336118,3710503,3563617,3146027
60100,3336131,3710101,3563421,3145691
60120,3335817,3709863,3563591,3145159
60140,3335661,3709379,3563755,3144926
60160,3335479,3708862,3563610,3144407
60180,3335296,3708299,3563484,3144020
60200,3335249,3708125,3563404,3143914
60220,3334977,3707713,3563579,3143502
60240,3335281,3707033,3563723,3143385
60260,3335381,3706927,3564105,3143532
60280,3335661,3706980,3564033,3143304
60300,3336018,3706799,3564624,3143570
60320,3336188,3706884,3565365,3144025
60340,3336877,3707107,3565903,3144280
60360,3337672,3707493,3566636,3144881
60380,3338362,3707829,3567714,3145546
60400,3339404,3708846,3568706,3146084
60420,3340279,3709219,3569845,3147178
60440,3341186,3709710,3570699,3147607
60460,3341981,3710547,3571887,3148356
60480,3343373,3711476,3573394,3149288
60500,3344229,3711914,3574524,3150153
60520,3345124,3713068,3575810,3151152
60540,3346637,3714265,3577048,3152227
60560,3348218,3715365,3578632,3153203
60580,3348976,3716204,3580068,3154161
60600,3350505,3717145,3581883,3155345
60620,3352016,3718312,3583083,3156475
60640,3353242,3719734,3584920,3157404
60660,3354550,3720824,3586524,3158753
60680,3355811,3721551,3588090,3159896
60700,3356395,3722031,3588696,3160118
60720,3355626,3721094,3588179,3159006
60740,3353635,3718949,3585762,3156940
60760,3350904,3715834,3583073,3154456
60780,3348312,3713072,3580160,3151691
60800,3345747,3709672,3576907,3148880
60820,3343277,3706861,3574174,3146632
60840,3340956,3704389,3571615,3144437
60860,3338943,3701648,3569082,3142303
60880,3337364,3699363,3567348,3140476
60900,3335804,3697400,3565534,3138681
60920,3334344,3695435,3563657,3137209
60940,3333570,3693651,3562120,3135828
60960,3332899,3692495,3561529,3134828
60980,3332710,3691499,3560911,3134403
61000,3332631,3691089,3560750,3134020
61020,3332731,3690812,3560650,3133793
61040,3332701,3690441,3560497,3133528
61060,3332822,3689899,3560229,3133270
61080,3332610,3689612,3560125,3133117
61100,3332748,3688981,3559721,3132879
61120,3332964,3688772,3559723,3132549
61140,3333204,3688405,3559626,3132648
61160,3333355,3688348,3559686,3132303
61180,3334154,3688052,3559721,3132579
61200,3334387,3688021,3559755,3132252
61220,3335181,3688341,3560223,3132694
61240,3335978,3688781,3560996,3133206
61260,3337110,3689300,3561594,3133684
61280,3338213,3689873,3562248,3133918
61300,3339433,3690619,3563332,3134840
61320,3340367,3691348,3563970,3135427
61340,3341969,3692391,3565215,3136146
61360,3343203,3693192,3566538,3137220
61380,3344639,3693911,3567790,3137909
61400,3346019,3695145,3568885,3139154
61420,3347746,3696293,3570412,3140102
61440,3349495,3697596,3571872,3141235
61460,3350841,3698850,3573200,3142616
61480,3352396,3700266,3574700,3143889
61500,3354296,3701648,3576305,3144928
61520,3355951,3703127,3578017,3146307
61540,3357645,3704699,3579699,3147550
61560,3359332,3706366,3581450,3148643
61580,3360241,3707067,3582404,3149314
61600,3359873,3706860,3581787,3148780
61620,3357944,3704769,3579873,3146743
61640,3355558,3702251,3577130,3144501
61660,3352956,3699552,3573723,3141878
61680,3350423,3696713,3570498,3139132
61700,3347813,3694078,3567344,3136976
61720,3345674,3691291,3564742,3134727
61740,3343332,3689387,3561899,3132930
61760,3342336,3687889,3559676,3131030
61780,3340020,3685320,3557271,3129063
